logMh | fpID | subhaloID | main leaf ID | descID |  z
9.08578 25355789 25355788 25355793 25355787 13.3382482898 3.48905 1.33988 5.4927
9.13871 25355788 25355787 25355793 25355786 12.6747021048 3.08087 0.783423 1.71216
9.48157 25355787 25355786 25355793 25355785 12.0418635439 -3.50311 -9.48116 43.8273
9.53996 25355786 25355785 25355793 25355784 11.4973879548 -6.25369 -6.49421 -9.80213
9.58469 25355785 25355784 25355793 25355783 10.9190331982 -3.77283 -7.11622 -7.81572
9.72568 25355784 25355783 25355793 25355782 10.3674435724 7.97103 -9.65934 1.31619
9.9787 25355783 25355782 25355793 25355781 9.99659046619 -3.78771 -0.935656 -18.2662
10.0161 25355782 25355781 25355793 25355780 9.84138043947 7.16037 -20.003 45.9267
10.0364 25355781 25355780 25355793 25355779 9.38877127194 4.66272 -30.1532 77.6552
10.4905 25355780 25355776 25355793 25355775 8.01217294887 12.8927 -34.4154 80.1761
10.6113 25355776 25355775 25355793 25355774 7.59510714987 -14.3297 -16.0883 136.709
10.6902 25355775 25355774 25355793 25355773 7.23627606617 2.7824 -12.5242 104.125
10.7269 25355774 25355773 25355793 25355772 7.00541704554 14.7049 -11.2217 111.505
10.7568 25355773 25355772 25355793 25355771 6.85511726265 -5.67943 -9.88526 150.885
10.809 25355772 25355771 25355793 25355770 6.49159774567 -2.2146 -10.7962 136.452
10.8793 25355771 25355770 25355793 25355769 6.14490120342 -40.2959 -3.13733 168.696
10.8971 25355770 25355769 25355793 25355768 6.01075739884 -1.02824 -0.895785 110.539
10.9424 25355769 25355768 25355793 25355767 5.84661374788 -8.50999 2.33201 116.491
11.0462 25355768 25355767 25355793 25355766 5.52976580795 -12.4364 22.9383 112.45
11.1405 25355767 25355766 25355793 25355765 5.22758097313 -36.008 56.1265 87.8301
11.2018 25355766 25355765 25355793 25355764 4.99593346816 -46.7389 75.9668 90.1594
11.2118 25355765 25355764 25355793 25355763 4.93938066349 -52.5392 73.0482 110.688
11.2868 25355764 25355763 25355793 25355762 4.66451770247 -44.0876 116.605 111.632
11.3222 25355763 25355762 25355793 25355761 4.42803373661 -77.533 160.278 130.428
11.4374 25355762 25355761 25355793 25355760 4.17683491473 -172.445 258.598 -60.8784
11.5255 25355761 25355760 25355793 25355759 4.00794511147 -244.977 205.411 -171.405
11.5409 25355760 25355759 25355793 25355758 3.93726108473 -278.528 187.202 -151.624
11.6093 25355759 25355758 25355793 25355757 3.70877426464 -224.591 84.954 -149.457
11.7464 25355758 25355757 25355793 25355756 3.49086136926 -188.168 -210.521 6.10371
11.7876 25355757 25355756 25355793 25355755 3.28303305796 -338.999 -139.269 -124.405
11.9974 25355756 25355755 25355793 25355754 3.08482263583 -690.412 -734.429 481.636
12.0306 25355755 25355754 25355793 25355753 3.00813107163 -654.98 -742.864 499.825
12.0622 25355754 25355753 25355793 25355752 2.89578500573 -672.495 -709.828 500.331
12.1043 25355753 25355752 25355793 25355751 2.73314261732 -611.382 -684.272 472.844
12.1645 25355752 25355751 25355793 25355750 2.5772902716 -304.128 -775.368 366.138
12.2065 25355751 25355750 25355793 25355749 2.44422570455 -86.3352 -819.538 226.176
12.2664 25355750 25355749 25355793 25355748 2.31611074396 255.305 -1015.67 220.597
12.3036 25355749 25355748 25355793 25355747 2.20792547238 300.921 -1163.46 295.615
12.3333 25355748 25355747 25355793 25355746 2.1032696526 293.864 -1244.31 381.0
12.3633 25355747 25355746 25355793 25355745 2.00202813925 192.422 -1264.13 361.752
12.3825 25355746 25355745 25355793 25355744 1.90408954353 159.536 -1279.63 271.005
12.3885 25355745 25355744 25355793 25355743 1.82268925262 91.189 -1340.53 206.279
12.3971 25355744 25355743 25355793 25355742 1.74357057433 40.6217 -1332.21 21.901
12.4002 25355743 25355741 25355793 25355740 1.60423452207 -49.7097 -1310.36 -345.077
12.4281 25355741 25355740 25355793 25355739 1.53123902916 -457.229 -757.821 -342.411
12.4369 25355740 25355739 25355793 25355738 1.47197484527 -569.947 -688.509 -276.19
12.4485 25355739 25355738 25355793 25355737 1.41409822037 -771.552 -439.163 29.9021
12.4536 25355738 25355737 25355793 25355736 1.3575766674 -593.131 -552.302 96.4236
12.4829 25355737 25355736 25355793 25355735 1.30237845991 -1032.51 212.803 757.584
12.5168 25355736 25355735 25355793 25355734 1.24847261425 -1722.55 958.744 1133.48
12.5341 25355735 25355734 25355793 25355733 1.20625808078 -1588.95 991.443 1189.68
12.5729 25355734 25355733 25355793 25355732 1.15460271236 -1583.71 833.548 1642.33
12.6063 25355733 25355732 25355793 25355731 1.11415056377 -2015.91 1209.9 1801.69
12.6255 25355732 25355731 25355793 25355730 1.07445789455 -1554.81 878.621 1807.66
12.629 25355731 25355730 25355793 25355729 1.03551044566 -1991.63 1046.31 2222.19
12.6439 25355730 25355729 25355793 25355728 0.997294225782 -2267.45 1384.11 2108.86
12.6493 25355729 25355728 25355793 25355727 0.987852810816 -2127.42 1208.54 2030.79
12.6749 25355728 25355727 25355793 25355726 0.950531351585 -2431.1 1542.02 1764.86
12.6953 25355727 25355726 25355793 25355725 0.923000816178 -2639.07 1707.99 1646.36
12.6991 25355726 25355725 25355793 25355724 0.886896937575 -2233.68 1260.0 1569.95
12.7167 25355725 25355724 25355793 25355723 0.851470900625 -1638.08 884.776 1284.45
12.7249 25355724 25355723 25355793 25355722 0.816709979012 -1453.91 522.193 1066.54
12.732 25355723 25355722 25355793 25355721 0.791068248946 -1856.87 845.454 1116.96
12.7411 25355722 25355721 25355793 25355720 0.757441372616 -2014.3 960.895 1042.79
12.7463 25355721 25355720 25355793 25355719 0.732636182022 -1971.55 943.595 747.79
12.7474 25355720 25355718 25355793 25355717 0.676110411213 -2227.89 1168.5 497.77
12.7506 25355718 25355717 25355793 25355716 0.644641840685 -2100.01 1075.69 431.322
12.7558 25355717 25355716 25355793 25355715 0.621428745243 -2095.69 978.873 310.054
12.7564 25355716 25355715 25355793 25355714 0.598543288188 -2157.64 1002.02 452.416
12.7636 25355715 25355712 25355793 25355711 0.524565820434 -1896.86 796.947 762.884
12.7705 25355712 25355711 25355793 25355710 0.503047523245 -2014.07 766.775 717.964
12.771 25355711 25355709 25355793 25355708 0.460917794181 -2041.4 521.242 501.216
12.7737 25355709 25355708 25355793 25355707 0.440297849248 -2144.64 543.213 496.859
12.7797 25355708 25355707 25355793 25355706 0.419968941997 -2161.67 471.434 546.694
12.7817 25355707 25355706 25355793 25355705 0.399926964614 -2356.53 594.641 716.828
12.7832 25355706 25355705 25355793 25355704 0.38016786726 -2511.27 701.383 756.335
12.7883 25355705 25355704 25355793 25355703 0.360687657262 -2556.7 663.506 785.679
12.7914 25355704 25355703 25355793 25355702 0.347853841858 -2593.27 644.034 877.972
12.7934 25355703 25355699 25355793 25355698 0.273353346578 -2463.77 490.128 870.66
12.7946 25355699 25355698 25355793 25355697 0.261343256161 -2522.97 533.452 844.593
12.7964 25355698 25355697 25355793 25355696 0.243540181555 -2490.64 562.721 865.374
12.7982 25355697 25355696 25355793 25355695 0.22598838626 -2591.41 693.12 932.319
12.8001 25355696 25355695 25355793 25355694 0.214425035514 -2601.66 695.651 923.034
12.8047 25355695 25355694 25355793 25355693 0.197284182376 -2678.91 783.465 943.329
12.8079 25355694 25355693 25355793 25355692 0.180385261706 -2669.78 805.101 847.314
12.8097 25355693 25355692 25355793 25355691 0.169252033244 -2634.6 863.175 808.334
12.8129 25355692 25355691 25355793 25355690 0.152748768902 -2587.69 885.042 740.977
12.815 25355691 25355690 25355793 25355689 0.14187620397 -2666.57 991.405 600.202
12.8173 25355690 25355689 25355793 25355688 0.125759332411 -2691.56 1050.6 512.81
12.8195 25355689 25355688 25355793 25355687 0.109869940459 -2743.55 1153.78 532.822
12.821 25355688 25355687 25355793 25355686 0.0994018026302 -2770.25 1199.28 401.419
12.8234 25355687 25355686 25355793 25355685 0.0838844307975 -2792.3 1202.33 418.664
12.8266 25355686 25355685 25355793 25355684 0.0736613846564 -2680.35 1178.49 293.978
12.8312 25355685 25355684 25355793 25355683 0.0585073227945 -2689.43 1120.33 110.958
12.8344 25355684 25355683 25355793 25355682 0.0485236299818 -2765.71 1120.8 64.2157
12.8406 25355683 25355682 25355793 25355681 0.0337243718735 -2791.96 1129.28 92.2852
12.8442 25355682 25355681 25355793 25355680 0.0239744283828 -2868.82 1121.43 124.376
12.8491 25355681 25355680 25355793 25355679 0.00952166696794 -2981.17 1184.3 245.381
12.8522 25355680 25355679 25355793 -1 2.22044604925e-16 -2934.85 1147.65 257.932
9.00012 25355820 25355819 25355821 25355818 11.4973879548 -2.00675 -9.66754 -4.43684
9.01298 25355819 25355816 25355821 25355815 9.99659046619 0.797824 -6.02123 -5.90701
9.88016 25355824 25355823 25355832 25355776 8.9079991856 0.321655 -11.1103 3.25416
9.05811 25355869 25355868 25355874 25355867 12.6747021048 4.1546 3.59573 4.16832
9.16407 25355868 25355867 25355874 25355866 12.0418635439 1.35502 4.08427 5.97436
9.19013 25355867 25355866 25355874 25355865 11.4973879548 3.66403 5.24048 5.54764
9.26543 25355866 25355865 25355874 25355864 10.9190331982 6.31535 4.22239 1.84921
9.37457 25355865 25355862 25355874 25355861 9.84138043947 -0.0421662 8.44784 -0.973552
9.56911 25355862 25355861 25355874 25355860 9.38877127194 -6.18152 13.499 20.6046
10.0337 25355861 25355860 25355874 25355859 9.00233985416 0.0784919 -16.8691 9.03584
9.00337 25355885 25355884 25355888 25355883 9.99659046619 -5.03761 14.5625 2.5708
9.01928 25355896 25355895 25355902 25355894 8.9079991856 -12.9292 -8.55046 6.75581
9.08038 25355907 25355906 25355911 25355905 8.44947629437 8.73103 7.36216 5.922
9.15956 25355906 25355905 25355911 25355904 8.01217294887 10.2746 2.1757 4.69039
9.43015 25355978 25355977 25355979 25355976 12.0418635439 14.0197 -2.41987 20.748
9.49951 25355977 25355976 25355979 25355975 11.4973879548 15.9664 3.88976 5.38985
9.62212 25355976 25355975 25355979 25355974 10.9190331982 2.62545 -8.92312 9.30888
9.65802 25355975 25355970 25355979 25355969 9.00233985416 11.6039 -11.1493 0.117468
9.65945 25355970 25355969 25355979 25355968 8.9079991856 9.90327 -10.5 -0.95781
9.68244 25355969 25355968 25355979 25355967 8.44947629437 19.3796 -14.9225 -1.12346
9.02548 25356013 25356012 25356020 25356011 9.38877127194 2.68919 3.21259 -3.55823
9.16407 25356012 25356011 25356020 25356010 9.00233985416 5.50882 -3.95708 2.75166
9.22845 25356011 25356009 25356020 25356008 8.44947629437 9.83419 -6.08452 2.63363
9.3156 25356009 25356006 25356020 25356005 7.23627606617 3.85263 5.63333 4.50021
9.36481 25356006 25356005 25356020 25356004 7.00541704554 8.89201 7.39309 7.99162
9.40774 25356005 25356003 25356020 25356002 6.49159774567 17.6443 12.5494 7.9031
9.01928 25356065 25356064 25356066 25356063 13.3382482898 -0.413583 4.94805 -1.81298
9.17293 25356064 25356063 25356066 25356062 12.6747021048 -1.3558 5.05613 -2.74586
9.38815 25356063 25356061 25356066 25356060 11.4973879548 -5.59622 5.75565 8.85492
9.38948 25356061 25356060 25356066 25356059 10.9190331982 -5.40884 6.04554 1.80687
9.57349 25356060 25356059 25356066 25356058 10.3674435724 -5.83059 8.52173 15.6177
9.6182 25356059 25356058 25356066 25356057 9.99659046619 -4.27933 8.51361 17.7939
9.07492 25356173 25356172 25356177 25356171 12.0418635439 -1.74315 0.662171 -0.696841
9.17946 25356172 25356171 25356177 25356170 11.4973879548 -2.94736 -0.92858 1.06392
9.22651 25356171 25356170 25356177 25356169 10.9190331982 -3.38017 0.824671 0.235415
9.31083 25356170 25356169 25356177 25356168 10.3674435724 -2.25727 0.447545 -1.53595
9.38141 25356169 25356168 25356177 25356167 9.99659046619 -2.66075 0.153198 -2.18051
9.39214 25356168 25356167 25356177 25356166 9.84138043947 -2.82354 -0.798005 -2.77372
9.50567 25356167 25356166 25356177 25356165 9.38877127194 -1.4523 2.48708 8.97718
9.58213 25356166 25356165 25356177 25356164 9.00233985416 -2.61348 -2.17316 6.19159
9.72445 25356165 25356163 25356177 25356162 8.44947629437 5.45751 -16.4549 5.14101
9.77224 25356163 25356162 25356177 25356161 8.01217294887 -2.27749 5.58486 0.445706
9.89036 25356162 25356161 25356177 25356160 7.59510714987 12.6319 8.64853 -9.46757
10.0168 25356161 25356160 25356177 25356159 7.23627606617 -9.32454 27.42 -35.6818
10.0468 25356160 25356159 25356177 25356158 7.00541704554 22.3393 -0.422504 -21.8373
10.0638 25356159 25356158 25356177 25356157 6.85511726265 27.1672 2.94862 -15.4399
10.4234 25356158 25356156 25356177 25356155 6.14490120342 54.5424 59.1274 46.1007
9.15956 25356239 25356238 25356243 25356237 10.9190331982 -9.62731 1.78655 -7.24207
9.32031 25356238 25356237 25356243 25356236 10.3674435724 -3.86793 -9.77628 -2.43462
9.38681 25356237 25356236 25356243 25356235 9.99659046619 19.869 -13.3551 -9.89052
9.45376 25356236 25356233 25356243 25356232 9.00233985416 4.45745 -7.65169 1.06929
9.49431 25356233 25356231 25356243 25356230 8.44947629437 -1.83891 -9.16961 7.66382
9.59477 25356231 25356230 25356243 25356229 8.01217294887 4.46709 -11.7783 -0.639322
9.62831 25356230 25356228 25356243 25356227 7.23627606617 18.8122 -22.5602 2.85018
9.09111 25356295 25356294 25356299 25356293 9.84138043947 12.4906 -10.9049 -2.17309
9.1573 25356294 25356293 25356299 25356292 9.38877127194 12.2113 -8.18733 -2.5029
9.2026 25356293 25356292 25356299 25356291 9.00233985416 8.01239 -9.18239 -4.01396
9.34609 25356292 25356290 25356299 25356289 8.44947629437 13.6905 -2.12242 -0.00120314
9.54928 25356290 25356289 25356299 25356288 8.01217294887 27.0664 21.1342 -10.2661
9.57436 25356289 25356288 25356299 25356287 7.59510714987 24.7838 7.1283 -7.23321
9.50465 25356322 25356321 25356334 25356284 6.85511726265 21.6041 5.8999 -4.89251
10.3137 25356337 25356336 25356337 25356283 6.49159774567 33.9057 69.5088 26.1345
9.12424 25356353 25356352 25356364 25356351 8.44947629437 3.32718 -8.92127 1.02085
9.16182 25356352 25356351 25356364 25356350 8.01217294887 6.93375 -8.40303 1.61079
9.37319 25356351 25356350 25356364 25356349 7.59510714987 13.6324 -9.46547 15.0985
9.04358 25356371 25356370 25356383 25356369 5.52976580795 -15.0836 -1.74677 1.56923
9.10671 25356483 25356482 25356492 25356481 7.59510714987 1.6061 4.58206 14.8284
9.17946 25356482 25356480 25356492 25356479 7.00541704554 2.01297 2.10353 12.1401
9.19641 25356480 25356479 25356492 25356478 6.85511726265 3.35551 0.968363 11.3464
9.29124 25356479 25356478 25356492 25356477 6.49159774567 4.83893 4.44682 35.0192
9.34902 25356478 25356476 25356492 25356475 6.01075739884 4.14899 -14.1696 20.4717
9.06096 25356573 25356572 25356574 25356571 6.14490120342 12.5675 12.3522 14.0451
9.11681 25356572 25356570 25356574 25356569 5.84661374788 9.15431 6.67053 9.40478
9.18162 25356570 25356568 25356574 25356567 5.22758097313 -8.93442 -12.0274 -4.05292
9.01614 25356627 25356626 25356630 25356625 7.59510714987 -6.66662 8.19618 0.0508852
9.23988 25356626 25356625 25356630 25356624 7.23627606617 -27.3691 8.97307 7.67705
9.3044 25356625 25356624 25356630 25356623 7.00541704554 -23.9212 12.0447 6.41828
9.39081 25356624 25356623 25356630 25356622 6.85511726265 -22.6413 7.15309 -3.10988
9.41282 25356623 25356622 25356630 25356621 6.49159774567 -19.4118 5.37833 -0.877751
9.4651 25356622 25356621 25356630 25356620 6.14490120342 -16.0523 6.22196 0.127544
9.54558 25356621 25356620 25356630 25356619 6.01075739884 -8.77956 -6.64776 -5.69454
9.59059 25356620 25356619 25356630 25356618 5.84661374788 -12.8 -6.27201 -4.40595
9.49326 25356635 25356634 25356638 25356617 5.52976580795 -5.09122 1.00994 -7.23696
9.10926 25356662 25356661 25356670 25356660 9.38877127194 2.89436 -3.54818 -3.2969
9.15502 25356661 25356660 25356670 25356659 9.00233985416 4.67634 -2.59571 -1.49584
9.37457 25356660 25356658 25356670 25356657 8.44947629437 -1.26483 -2.09185 -6.09379
9.03763 25356690 25356689 25356697 25356688 6.49159774567 -0.962177 -2.39498 0.700967
9.03763 25356689 25356687 25356697 25356686 6.01075739884 1.66318 -2.50681 -2.42444
9.01928 25356733 25356732 25356743 25356731 5.84661374788 29.5777 18.9868 -19.5311
9.10157 25356888 25356887 25356892 25356886 8.44947629437 5.87695 -24.3703 -3.83546
9.14344 25356887 25356886 25356892 25356885 8.01217294887 3.98407 -19.0739 -3.79793
9.15502 25356886 25356885 25356892 25356884 7.59510714987 4.52664 -18.8155 -2.67588
9.23988 25356885 25356882 25356892 25356881 6.85511726265 6.77533 -11.1953 -7.43272
9.52657 25356882 25356881 25356892 25356880 6.49159774567 -14.0019 -38.6626 -12.5014
9.03763 25356897 25356896 25356899 25356881 7.00541704554 16.8387 12.1288 14.3933
9.06939 25356921 25356920 25356926 25356919 8.44947629437 3.50926 -10.0622 9.66092
9.08578 25356920 25356918 25356926 25356917 7.59510714987 5.0857 -9.88314 0.184903
9.08578 25356918 25356916 25356926 25356915 7.00541704554 6.38927 -6.56977 1.24686
9.17946 25356916 25356915 25356926 25356914 6.85511726265 7.5347 -8.51488 -1.4652
9.19641 25356915 25356911 25356926 25356910 5.84661374788 10.9465 2.10657 -5.71789
9.00012 25356947 25356946 25356953 25356945 7.59510714987 -6.13171 -3.20853 1.97921
9.09375 25356946 25356943 25356953 25356942 6.85511726265 -10.5748 5.68315 5.09669
9.04358 25356965 25356964 25356971 25356963 5.52976580795 9.15889 -0.544271 -8.68614
9.04062 25357024 25357023 25357027 25357022 5.52976580795 16.4224 -4.02971 18.7446
9.02855 25357174 25357173 25357180 25357172 7.59510714987 1.79159 -3.20577 3.9583
9.06378 25357173 25357172 25357180 25357171 7.23627606617 2.42196 -4.24869 4.71671
9.09637 25357172 25357171 25357180 25357170 7.00541704554 4.56546 -5.05467 2.63335
9.10926 25357171 25357170 25357180 25357169 6.85511726265 4.30047 -5.38894 2.03487
9.14578 25357170 25357169 25357180 25357168 6.49159774567 2.96237 -3.28485 -0.469133
9.17073 25357169 25357168 25357180 25357167 6.14490120342 5.82162 -3.71962 1.18612
9.17946 25357168 25357166 25357180 25357165 5.84661374788 6.1436 -3.5533 2.17279
9.10671 25357195 25357194 25357196 25357193 4.99593346816 6.22175 -5.06131 6.32127
9.16182 25357194 25357193 25357196 25357192 4.93938066349 4.90808 -8.17282 4.04142
9.16407 25357193 25357192 25357196 25357191 4.66451770247 6.30106 -3.61245 3.28075
9.22651 25357192 25357190 25357196 25357189 4.17683491473 -0.472234 -1.16055 -1.93396
9.24918 25357190 25357189 25357196 25357188 4.00794511147 -5.52305 3.55779 -5.71621
9.1193 25357372 25357371 25357378 25357370 8.01217294887 -4.94166 3.53591 -6.36617
9.27246 25357371 25357370 25357378 25357369 7.59510714987 -5.85173 5.69615 -8.52534
9.30278 25357370 25357369 25357378 25357368 7.23627606617 -6.23977 4.41787 -7.33703
9.37319 25357369 25357368 25357378 25357367 7.00541704554 -4.46191 2.88503 -5.23452
9.45946 25357368 25357367 25357378 25357366 6.85511726265 -14.0588 5.80521 -14.0523
9.4964 25357367 25357366 25357378 25357365 6.49159774567 -14.4595 6.6976 -18.1345
9.51675 25357366 25357365 25357378 25357364 6.14490120342 -7.65098 8.11204 -15.7185
9.54091 25357365 25357364 25357378 25357363 6.01075739884 -2.75388 4.3008 -14.8008
9.16852 25357406 25357405 25357408 25357404 7.23627606617 2.63328 -2.21264 -2.7308
9.18162 25357405 25357404 25357408 25357403 7.00541704554 3.43836 -2.09745 -2.09689
9.2026 25357404 25357403 25357408 25357402 6.85511726265 0.267114 -2.37205 -2.25908
9.25466 25357403 25357402 25357408 25357401 6.49159774567 1.94855 -0.394383 -0.665857
9.34016 25357402 25357401 25357408 25357400 6.14490120342 6.43348 -5.7167 -5.77096
9.3634 25357401 25357400 25357408 25357399 6.01075739884 6.75797 -3.85001 -5.77988
9.40646 25357400 25357399 25357408 25357398 5.84661374788 3.47765 -3.66176 -4.25692
9.49011 25357399 25357398 25357408 25357397 5.52976580795 -3.93946 2.52935 -14.8609
9.56646 25357398 25357397 25357408 25357396 5.22758097313 -5.38608 6.26479 -11.65
9.58383 25357397 25357395 25357408 25357394 4.93938066349 0.856961 10.3131 -20.336
9.07492 25357434 25357433 25357440 25357432 6.01075739884 8.55369 -2.2873 5.87243
9.18376 25357433 25357431 25357440 25357430 5.52976580795 11.5599 -2.6913 -1.6192
9.2026 25357551 25357550 25357554 25357549 10.9190331982 0.873196 4.015 0.722134
9.40131 25357550 25357548 25357554 25357547 9.99659046619 -4.01712 2.43765 -15.5879
9.45833 25357548 25357547 25357554 25357546 9.84138043947 -9.67743 4.23694 -15.0425
9.46172 25357547 25357546 25357554 25357545 9.38877127194 -6.67409 3.70196 -7.95189
