logMh | fpID | subhaloID | main leaf ID | descID |  z
9.27594 23704911 23704910 23704914 23704909 11.4973879548 -8.37233 -9.13538 5.8199
9.46733 23704910 23704909 23704914 23704908 10.9190331982 -16.7617 -9.08807 7.9084
9.71511 23704909 23704908 23704914 23704907 10.3674435724 -5.37716 -2.7898 0.426541
9.93696 23704908 23704907 23704914 23704906 9.99659046619 -19.9689 7.41468 -0.0139088
9.94371 23704907 23704906 23704914 23704905 9.84138043947 -22.5886 7.56322 -11.8933
10.1245 23704906 23704904 23704914 23704903 9.00233985416 -12.3032 12.1269 -17.009
10.1406 23704904 23704903 23704914 23704902 8.9079991856 -11.3621 10.8918 -8.91878
10.2067 23704903 23704902 23704914 23704901 8.44947629437 -13.0325 9.0737 -6.3756
10.3026 23704902 23704901 23704914 23704900 8.01217294887 -14.76 1.18796 -20.1186
10.3132 23704901 23704900 23704914 23704899 7.59510714987 -3.14898 -4.3865 -13.7279
10.6784 23704900 23704896 23704914 23704895 6.49159774567 -38.7031 12.1154 72.0176
10.7283 23704896 23704895 23704914 23704894 6.14490120342 -28.4828 16.3678 71.103
10.7812 23704895 23704894 23704914 23704893 6.01075739884 -37.2283 35.8943 76.8655
10.816 23704894 23704893 23704914 23704892 5.84661374788 -28.1107 47.5328 82.0613
10.8611 23704893 23704892 23704914 23704891 5.52976580795 -27.1223 54.3181 79.6874
10.907 23704892 23704891 23704914 23704890 5.22758097313 -29.9488 69.5215 96.0931
10.9276 23704891 23704890 23704914 23704889 4.99593346816 -34.7256 47.7081 92.1752
10.93 23704890 23704889 23704914 23704888 4.93938066349 -35.7462 51.6428 97.3078
10.9755 23704889 23704888 23704914 23704887 4.66451770247 -39.1296 65.1418 96.8353
11.0015 23704888 23704887 23704914 23704886 4.42803373661 -18.9961 74.7291 119.389
11.0556 23704887 23704886 23704914 23704885 4.17683491473 -11.1778 81.0177 169.782
11.097 23704886 23704885 23704914 23704884 4.00794511147 -17.7421 86.8831 210.576
11.113 23704885 23704884 23704914 23704883 3.93726108473 -6.53329 96.6216 210.03
11.1708 23704884 23704883 23704914 23704882 3.70877426464 -22.8639 91.2904 202.687
11.2257 23704883 23704882 23704914 23704881 3.49086136926 -8.43442 57.8936 217.666
11.2776 23704882 23704881 23704914 23704880 3.28303305796 -6.10735 27.6167 183.894
11.3054 23704881 23704880 23704914 23704879 3.08482263583 1.57078 -0.557214 189.703
11.3436 23704880 23704879 23704914 23704878 3.00813107163 -2.70918 -63.5056 202.177
11.3786 23704879 23704878 23704914 23704877 2.89578500573 -5.93972 -120.024 189.629
11.4336 23704878 23704877 23704914 23704876 2.73314261732 60.749 -270.968 173.421
11.5162 23704877 23704876 23704914 23704875 2.5772902716 88.5171 -614.517 118.525
11.6785 23704876 23704875 23704914 23704874 2.44422570455 -32.3084 -1374.82 -251.192
11.7718 23704875 23704872 23704914 23704871 2.1032696526 196.081 -1043.06 56.6986
11.8842 23704872 23704871 23704914 23704870 2.00202813925 178.894 -1470.49 -314.594
11.9471 23704871 23704870 23704914 23704869 1.90408954353 82.233 -1784.95 -524.93
12.0018 23704870 23704869 23704914 23704868 1.82268925262 96.7973 -2004.11 -774.843
12.0235 23704869 23704868 23704914 23704867 1.74357057433 14.0802 -2098.66 -919.04
12.0444 23704868 23704866 23704914 23704865 1.60423452207 -71.7659 -2265.38 -1051.25
12.0655 23704866 23704865 23704914 23704864 1.53123902916 -47.4778 -2303.69 -1033.39
12.0678 23704865 23704858 23704914 23704857 1.15460271236 53.6621 -1925.17 -661.245
12.0749 23704858 23704857 23704914 23704856 1.11415056377 14.8062 -1913.62 -630.332
12.0843 23704857 23704856 23704914 23704855 1.07445789455 -65.2741 -1829.77 -510.756
12.0976 23704856 23704855 23704914 23704854 1.03551044566 -101.502 -1846.13 -499.53
12.1258 23704855 23704854 23704914 23704853 0.997294225782 634.567 -1415.99 -485.19
12.1508 23704854 23704851 23704914 23704850 0.923000816178 221.343 -1545.91 -263.59
12.166 23704851 23704850 23704914 23704849 0.886896937575 124.689 -1661.91 -234.042
12.1868 23704850 23704848 23704914 23704847 0.816709979012 17.1868 -1753.03 -205.985
12.209 23704848 23704846 23704914 23704845 0.757441372616 112.794 -1834.85 -237.371
12.2299 23704846 23704845 23704914 23704844 0.732636182022 482.166 -1615.29 -63.3631
12.2425 23704845 23704844 23704914 23704843 0.700106353719 485.725 -1606.2 -16.0946
12.2535 23704844 23704843 23704914 23704842 0.676110411213 622.048 -1608.52 -15.8284
12.2804 23704843 23704842 23704914 23704841 0.644641840685 564.535 -1850.86 243.689
12.2911 23704842 23704841 23704914 23704840 0.621428745243 241.778 -2112.91 312.643
12.3182 23704841 23704840 23704914 23704839 0.598543288188 -232.082 -2515.35 637.615
12.3453 23704840 23704839 23704914 23704838 0.575980845108 -652.524 -2872.36 952.768
12.3692 23704839 23704838 23704914 23704837 0.546392183141 -198.502 -2787.04 844.66
12.3875 23704838 23704837 23704914 23704836 0.524565820434 -121.694 -2809.63 917.443
12.4172 23704837 23704836 23704914 23704835 0.503047523245 -233.851 -2669.42 1128.31
12.4302 23704836 23704835 23704914 23704834 0.481832943421 -664.016 -2961.58 1323.14
12.4355 23704835 23704834 23704914 23704833 0.460917794181 -1066.41 -3160.93 1372.81
12.4552 23704834 23704833 23704914 23704832 0.440297849248 -1251.75 -3119.73 1577.59
12.4822 23704833 23704832 23704914 23704831 0.419968941997 -1804.18 -3434.8 1934.51
12.4925 23704832 23704830 23704914 23704829 0.38016786726 -2106.34 -3350.94 1928.05
12.5042 23704830 23704829 23704914 23704828 0.360687657262 -2370.12 -3446.27 1958.46
12.5082 23704829 23704828 23704914 23704827 0.347853841858 -2313.22 -3284.78 1905.77
12.5148 23704828 23704827 23704914 23704826 0.328829724206 -2196.37 -3100.93 1865.26
12.528 23704827 23704826 23704914 23704825 0.310074120128 -2388.82 -3055.86 1913.71
12.5368 23704826 23704825 23704914 23704824 0.291583239722 -2468.38 -3027.55 1899.84
12.5439 23704825 23704822 23704914 23704821 0.243540181555 -2687.81 -3199.92 1821.1
12.5531 23704822 23704817 23704914 23704816 0.169252033244 -2400.5 -2886.06 1712.14
12.5625 23704817 23704816 23704914 23704815 0.152748768902 -2436.59 -2908.86 1755.84
12.5669 23704816 23704814 23704914 23704813 0.125759332411 -2513.66 -2774.31 1719.0
12.5768 23704814 23704813 23704914 23704812 0.109869940459 -2370.71 -2867.37 1733.32
9.15956 23704935 23704934 23704937 23704933 11.4973879548 3.06015 0.707131 9.59871
9.25101 23704934 23704933 23704937 23704932 10.9190331982 2.50786 -0.771533 8.283
10.0346 23704933 23704929 23704937 23704904 9.38877127194 -23.9986 14.4197 -2.15741
9.10671 23704962 23704961 23704966 23704960 9.99659046619 -1.12067 -1.57639 -2.90336
9.24918 23704961 23704959 23704966 23704958 9.38877127194 6.91215 -2.09651 5.04603
9.08309 23705019 23705018 23705020 23705017 13.3382482898 2.52538 1.54227 0.139662
9.1573 23705018 23705017 23705020 23705016 12.6747021048 3.24815 0.862049 -3.08922
9.25101 23705017 23705016 23705020 23705015 12.0418635439 2.99522 1.11557 3.75245
9.42404 23705016 23705015 23705020 23705014 11.4973879548 1.33936 -1.67159 -3.78644
9.5314 23705015 23705014 23705020 23705013 10.9190331982 -0.793286 -3.74925 1.80375
9.60705 23705014 23705013 23705020 23705012 10.3674435724 6.08475 -4.05414 0.504494
9.69647 23705013 23705012 23705020 23705011 9.99659046619 12.5883 -6.98347 -5.49768
9.78098 23705012 23705011 23705020 23705010 9.84138043947 32.5719 -6.92528 -6.8961
9.83483 23705011 23705010 23705020 23705009 9.38877127194 25.2294 3.09584 4.49432
9.92626 23705010 23705009 23705020 23705008 9.00233985416 15.6162 5.58625 20.3287
10.0101 23705009 23705008 23705020 23705007 8.9079991856 11.1384 5.85066 29.9065
10.1208 23705008 23705007 23705020 23705006 8.44947629437 23.9042 24.99 20.5956
10.1559 23705007 23705006 23705020 23705005 8.01217294887 22.006 24.7589 30.0603
10.2401 23705006 23705005 23705020 23705004 7.59510714987 39.4372 25.1183 15.1339
10.4288 23705005 23705004 23705020 23705003 7.23627606617 20.3867 17.7824 48.8588
10.4709 23705004 23705003 23705020 23705002 7.00541704554 11.7753 9.40578 45.7632
10.5236 23705003 23705002 23705020 23705001 6.85511726265 -14.0492 6.09693 61.0329
9.05524 23705055 23705054 23705056 23705053 12.0418635439 -1.11401 -6.66263 -0.19959
9.13154 23705054 23705053 23705056 23705052 11.4973879548 -1.81485 -6.8445 0.577465
9.20464 23705053 23705052 23705056 23705051 10.9190331982 -1.86552 -7.30319 -1.27653
9.32187 23705052 23705051 23705056 23705050 10.3674435724 -2.41967 -7.1828 -2.92225
9.36902 23705051 23705050 23705056 23705049 9.99659046619 -3.44561 -8.80334 -5.90012
9.37595 23705050 23705048 23705056 23705047 9.38877127194 -1.29411 3.85705 -4.60335
9.00337 23705065 23705064 23705075 23705063 6.49159774567 7.1688 5.35947 -3.69131
9.00337 23705064 23705063 23705075 23705062 6.14490120342 -3.39864 3.97033 -0.648975
9.04945 23705063 23705062 23705075 23705061 6.01075739884 -4.61595 3.85112 -2.71071
9.00337 23705081 23705080 23705086 23705079 6.49159774567 -10.2756 -1.80435 11.6599
9.01928 23705115 23705114 23705120 23705113 7.59510714987 -0.913648 -22.6626 8.70153
9.04062 23705114 23705109 23705120 23705108 6.14490120342 -4.58994 -4.17068 2.90375
9.16407 23705128 23705127 23705139 23705126 4.66451770247 -3.02953 3.63905 20.5627
9.03763 23705159 23705158 23705175 23705157 4.66451770247 15.0632 3.56234 -0.850735
9.0066 23705201 23705200 23705211 23705199 6.49159774567 3.48046 -1.01564 6.2174
9.1663 23705247 23705246 23705255 23705245 7.23627606617 0.44897 1.23801 4.25482
9.19848 23705246 23705241 23705255 23705240 6.01075739884 6.59629 -1.89261 -6.71519
9.00012 23705283 23705282 23705292 23705281 7.59510714987 -6.34457 3.30435 -1.30601
9.02855 23705282 23705281 23705292 23705280 7.23627606617 -8.22968 2.00784 -2.34716
9.07492 23705281 23705278 23705292 23705277 6.49159774567 -4.25906 3.43208 -1.62197
9.11681 23705278 23705277 23705292 23705276 6.14490120342 -4.1155 5.61724 -0.944917
9.14811 23705277 23705275 23705292 23705274 5.84661374788 -5.85182 4.92754 -1.14075
9.16407 23705275 23705274 23705292 23705273 5.52976580795 -5.53061 4.96627 0.308268
9.19223 23705274 23705273 23705292 23705272 5.22758097313 -7.02785 5.63505 -0.939693
9.19433 23705273 23705272 23705292 23705271 4.99593346816 -6.36082 6.82641 0.842261
9.20464 23705272 23705271 23705292 23705270 4.93938066349 -8.19132 8.02333 -0.538583
9.01298 23705410 23705409 23705418 23705408 7.23627606617 3.84783 -4.62088 -9.15279
9.01928 23705409 23705408 23705418 23705407 7.00541704554 5.16776 -5.40077 -9.30864
9.02548 23705408 23705407 23705418 23705406 6.85511726265 3.37863 -5.7028 -10.0037
9.02548 23705407 23705406 23705418 23705405 6.49159774567 4.09306 -4.87888 -8.64038
9.04945 23705406 23705403 23705418 23705402 5.84661374788 5.35451 -3.91914 -7.21648
9.0066 23705501 23705500 23705508 23705499 3.93726108473 -2.49532 1.50311 1.20975
9.06378 23705500 23705499 23705508 23705498 3.70877426464 -1.22147 0.996133 -0.0900859
9.07492 23705499 23705497 23705508 23705496 3.28303305796 2.16624 2.87814 0.804299
9.16407 23705512 23705511 23705523 23705510 3.08482263583 13.0341 16.5671 -0.786104
9.01614 23705577 23705576 23705590 23705575 6.01075739884 3.0564 -0.455396 -3.63548
9.07766 23705576 23705575 23705590 23705574 5.84661374788 8.09965 4.38507 -7.94398
9.19433 23705575 23705573 23705590 23705572 5.22758097313 11.9706 4.9513 -6.96423
9.20668 23705573 23705572 23705590 23705571 4.99593346816 13.9693 4.25867 -11.3457
9.0098 23705736 23705735 23705748 23705734 5.52976580795 1.94049 -5.34638 -1.88681
9.02239 23705735 23705733 23705748 23705732 4.99593346816 4.5321 -2.67515 -2.78977
9.06096 23705733 23705732 23705748 23705731 4.93938066349 2.97009 -3.96987 -2.26614
9.08309 23705732 23705731 23705748 23705730 4.66451770247 7.29602 -1.28221 -0.825476
9.16182 23705731 23705730 23705748 23705729 4.42803373661 3.11638 7.6478 -3.74326
9.18162 23705730 23705729 23705748 23705728 4.17683491473 2.82848 5.84093 -1.17228
9.21272 23705729 23705726 23705748 23705725 3.70877426464 -3.60334 1.02763 -10.427
9.26365 23705726 23705725 23705748 23705724 3.49086136926 1.52382 -0.752121 -12.7125
9.28956 23705725 23705724 23705748 23705723 3.28303305796 6.02606 -3.40656 -10.0863
9.00337 23705783 23705782 23705790 23705781 6.01075739884 -1.25884 2.25702 -6.98353
9.04358 23705782 23705781 23705790 23705780 5.84661374788 1.81604 1.65897 -7.88776
9.20668 23705781 23705780 23705790 23705779 5.52976580795 4.03828 -3.05264 -6.39377
9.25648 23705780 23705779 23705790 23705778 5.22758097313 3.50519 -4.34616 -7.67971
9.30763 23705779 23705778 23705790 23705777 4.99593346816 -2.43968 -5.85009 -7.46458
9.32342 23705778 23705777 23705790 23705776 4.93938066349 -2.96769 -7.39669 -4.32212
9.43737 23705777 23705776 23705790 23705775 4.66451770247 -25.5344 -10.227 -10.0452
9.5026 23705776 23705775 23705790 23705774 4.42803373661 -24.3271 -8.44762 -8.64402
9.10926 23705812 23705811 23705820 23705810 3.70877426464 9.64089 8.60058 -1.63577
9.15502 23705811 23705809 23705820 23705808 3.28303305796 -0.245659 10.2251 -1.80032
9.21472 23705809 23705807 23705820 23705806 3.00813107163 2.17225 13.0733 1.7678
9.04358 23705944 23705943 23705948 23705942 9.38877127194 6.35466 1.19726 4.74095
9.08309 23705943 23705942 23705948 23705941 9.00233985416 14.098 2.21383 7.57945
9.10671 23705942 23705941 23705948 23705940 8.9079991856 13.2095 1.4824 7.38899
9.18162 23705941 23705938 23705948 23705937 7.59510714987 12.5633 4.64921 -2.22398
9.2026 23705938 23705936 23705948 23705935 7.00541704554 8.49837 5.1124 -3.09691
9.29951 23705936 23705935 23705948 23705934 6.85511726265 10.9301 2.84421 -3.59419
9.30278 23705935 23705934 23705948 23705933 6.49159774567 6.50952 -3.48297 -1.77806
9.39214 23705934 23705933 23705948 23705932 6.14490120342 3.53928 -1.55212 0.547842
9.39214 23705933 23705932 23705948 23705931 6.01075739884 5.20976 -3.13328 -3.03122
9.40518 23705932 23705931 23705948 23705930 5.84661374788 4.93112 -3.58287 -3.18567
9.43617 23705931 23705930 23705948 23705929 5.52976580795 3.09578 -8.40948 -3.54864
9.48372 23705930 23705929 23705948 23705928 5.22758097313 1.89279 -6.82427 -6.5954
9.50158 23705929 23705928 23705948 23705927 4.99593346816 -1.01048 -8.08687 -5.62329
9.08309 23705992 23705991 23705994 23705990 6.49159774567 -1.81867 10.1183 -3.17681
9.13394 23705991 23705990 23705994 23705989 6.14490120342 -0.92617 6.07054 -0.707059
9.15502 23705990 23705989 23705994 23705988 6.01075739884 -1.12305 7.31448 -1.17357
9.2087 23705989 23705988 23705994 23705987 5.84661374788 -0.890343 7.3335 -4.14553
9.25648 23705988 23705987 23705994 23705986 5.52976580795 -0.825386 5.28586 -4.50122
9.32651 23705987 23705986 23705994 23705985 5.22758097313 -5.97512 14.1486 -5.4696
9.34756 23705986 23705985 23705994 23705984 4.99593346816 -2.70511 12.726 -5.57846
9.36902 23705985 23705984 23705994 23705983 4.93938066349 2.39966 15.7015 -2.98587
9.40131 23705984 23705983 23705994 23705982 4.66451770247 3.40777 17.7419 -1.88154
9.62985 23705983 23705982 23705994 23705981 4.42803373661 16.3515 41.5393 -0.724958
9.74958 23705982 23705981 23705994 23705980 4.17683491473 6.38417 34.0902 5.57184
9.12424 23706116 23706115 23706122 23706114 7.23627606617 7.18113 0.59119 4.43175
9.14344 23706115 23706114 23706122 23706113 7.00541704554 6.70945 0.155034 5.16652
9.15042 23706114 23706113 23706122 23706112 6.85511726265 6.77546 -0.722171 5.18314
9.19433 23706113 23706112 23706122 23706111 6.49159774567 3.96164 -0.670212 6.67521
9.22457 23706112 23706111 23706122 23706110 6.14490120342 6.67902 3.04617 5.24975
9.24733 23706111 23706110 23706122 23706109 6.01075739884 5.58396 -0.14682 5.58369
9.2742 23706110 23706109 23706122 23706108 5.84661374788 10.083 -6.83875 3.59666
9.37595 23706109 23706108 23706122 23706107 5.52976580795 13.6084 -23.6114 -8.32739
9.41659 23706108 23706107 23706122 23706106 5.22758097313 7.60703 -21.5293 -1.00408
9.44914 23706107 23706106 23706122 23706105 4.99593346816 9.15424 -16.022 5.03963
9.48479 23706106 23706104 23706122 23706103 4.66451770247 13.7971 -18.2131 6.07599
9.49326 23706104 23706102 23706122 23706101 4.17683491473 12.3091 -17.6573 0.175955
9.51074 23706102 23706101 23706122 23706100 4.00794511147 19.5406 -18.4673 -1.78488
9.51575 23706101 23706100 23706122 23706099 3.93726108473 16.7162 -18.4935 2.36351
9.01614 23706143 23706142 23706148 23706141 4.99593346816 5.77261 -0.813975 2.42299
9.04653 23706142 23706140 23706148 23706139 4.66451770247 2.7533 -4.75991 1.22655
9.10671 23706140 23706139 23706148 23706138 4.42803373661 1.64177 -5.39361 -2.15617
9.21869 23706139 23706138 23706148 23706137 4.17683491473 5.64047 0.776487 2.48212
9.27594 23706138 23706137 23706148 23706136 4.00794511147 11.312 4.30128 -3.15234
9.34756 23706137 23706136 23706148 23706135 3.93726108473 13.6778 8.01726 -10.0318
9.49326 23706136 23706135 23706148 23706134 3.49086136926 18.1946 8.93919 -19.4726
9.63969 23706135 23706134 23706148 23706133 3.28303305796 -7.7717 12.3491 -23.3042
9.76275 23706134 23706133 23706148 23706132 3.08482263583 -30.6747 22.4351 -19.9594
9.79377 23706133 23706131 23706148 23706130 2.89578500573 -43.5149 29.6096 -15.7443
9.57436 23706159 23706158 23706171 23706157 3.70877426464 11.3704 9.39167 -18.213
9.01298 23706187 23706186 23706211 23706185 2.73314261732 -5.83754 4.2136 -3.00145
9.14108 23706368 23706367 23706381 23706366 4.42803373661 28.8173 -13.7055 -3.13399
9.16852 23706367 23706366 23706381 23706365 4.17683491473 30.4847 -14.0349 -4.35295
9.19223 23706366 23706362 23706381 23706361 3.49086136926 20.4826 -14.8442 -7.08027
9.33566 23706362 23706361 23706381 23706360 3.28303305796 31.9872 -13.5348 -28.4852
9.02548 23706561 23706560 23706573 23706559 4.93938066349 -3.10666 -1.00814 -7.56244
9.22066 23706560 23706559 23706573 23706558 4.66451770247 -9.52323 -10.0003 -21.1444
9.10671 23706621 23706620 23706631 23706619 2.73314261732 15.3804 7.83804 13.4803
9.00012 23706711 23706710 23706722 23706709 5.52976580795 -3.3053 4.72503 1.69792
9.01614 23706710 23706708 23706722 23706707 4.99593346816 0.674835 1.16298 0.933301
9.06096 23706880 23706879 23706890 23706878 4.99593346816 8.78623 -3.86244 -0.221818
9.14108 23706879 23706878 23706890 23706877 4.93938066349 9.78941 -8.261 -5.66939
9.35048 23706878 23706877 23706890 23706876 4.66451770247 -0.0336542 -8.88727 -22.9058
9.37869 23706877 23706876 23706890 23706875 4.42803373661 1.48172 -11.2879 -21.5225
9.39081 23706876 23706875 23706890 23706874 4.17683491473 -4.27 -9.87576 -16.1532
9.43497 23706875 23706874 23706890 23706873 4.00794511147 -2.6597 -7.44161 -12.0114
9.44329 23706874 23706873 23706890 23706872 3.93726108473 -3.73141 -8.87773 -14.9181
9.44329 23706873 23706871 23706890 23706870 3.49086136926 -3.22973 -6.61472 -18.5625
9.45946 23706871 23706869 23706890 23706868 3.08482263583 -11.3774 -8.39662 -19.0553
9.0316 23706931 23706930 23706942 23706929 6.14490120342 -6.40967 -0.470186 -0.219734
9.09898 23706930 23706929 23706942 23706928 6.01075739884 -22.7119 1.18462 -4.69917
9.14578 23706929 23706927 23706942 23706926 5.52976580795 -11.7731 -1.2277 -1.23381
9.02239 23706960 23706959 23706979 23706958 3.28303305796 1.52894 0.401442 -7.65177
9.04062 23706959 23706958 23706979 23706957 3.08482263583 -0.0581804 -1.2879 -6.52322
9.04653 23706958 23706956 23706979 23706955 2.89578500573 -5.3019 1.74032 -2.65063
9.01928 23707036 23707035 23707047 23707034 3.93726108473 12.3232 -1.07265 -19.7251
9.06939 23707035 23707033 23707047 23707032 3.49086136926 14.3929 -2.27283 -24.9933
9.13154 23707033 23707032 23707047 23707031 3.28303305796 17.6143 -13.3764 -24.7904
9.02239 23707166 23707165 23707171 23707164 6.49159774567 -1.15728 1.3142 -0.0974443
9.23229 23707165 23707164 23707171 23707163 6.14490120342 9.0858 -9.36889 -3.08998
9.31401 23707164 23707163 23707171 23707162 6.01075739884 6.79808 -14.3155 -5.22543
9.37181 23707163 23707162 23707171 23707161 5.84661374788 7.67782 -11.1192 -5.16221
9.44681 23707162 23707161 23707171 23707160 5.52976580795 -2.11685 -7.9848 -10.2651
9.49744 23707161 23707160 23707171 23707159 5.22758097313 4.84864 -6.03056 -6.68506
9.62677 23707160 23707159 23707171 23707158 4.99593346816 -6.56816 -6.51136 -10.1137
