logMh | fpID | subhaloID | main leaf ID | descID |  z
9.06939 19856208 19856207 19856210 19856206 10.3674435724 -2.81752 -2.26311 -0.745184
9.12424 19856207 19856206 19856210 19856205 9.99659046619 -0.590698 -1.83632 -0.230337
9.14811 19856206 19856205 19856210 19856204 9.84138043947 -0.810621 -0.0276711 2.47018
9.24733 19856205 19856204 19856210 19856203 9.38877127194 -2.53008 -1.0285 3.38658
9.39346 19856204 19856203 19856210 19856202 9.00233985416 -1.77914 9.23961 17.2227
9.40001 19856203 19856202 19856210 19856201 8.9079991856 -1.7279 7.90483 15.1489
9.45833 19856202 19856201 19856210 19856200 8.44947629437 -4.37078 7.97064 16.3139
9.48799 19856201 19856200 19856210 19856199 8.01217294887 -2.0949 -0.932677 1.74497
9.57523 19856200 19856199 19856210 19856198 7.59510714987 -5.8879 -0.325709 7.07211
9.58723 19856199 19856198 19856210 19856197 7.23627606617 -2.09031 -0.14745 4.52191
9.65514 19856198 19856197 19856210 19856196 7.00541704554 -0.520737 -9.88239 -8.64875
9.67491 19856197 19856196 19856210 19856195 6.85511726265 2.80529 -12.7234 -16.2294
9.74078 19856196 19856195 19856210 19856194 6.49159774567 -5.48937 -3.13348 3.56992
9.79061 19856195 19856194 19856210 19856193 6.14490120342 -4.82326 -5.89146 0.439868
9.80721 19856194 19856193 19856210 19856192 6.01075739884 0.902147 -3.5978 2.4285
9.81827 19856193 19856192 19856210 19856191 5.84661374788 -6.03048 -5.3996 2.91361
9.89204 19856192 19856191 19856210 19856190 5.52976580795 1.19105 -7.77709 -4.5522
9.92237 19856191 19856190 19856210 19856189 5.22758097313 4.62703 -4.61921 2.43396
9.95327 19856190 19856189 19856210 19856188 4.99593346816 7.32227 -9.94266 2.90762
9.96582 19856189 19856188 19856210 19856187 4.93938066349 8.69732 -11.637 6.28708
10.0079 19856188 19856187 19856210 19856186 4.66451770247 14.3391 -10.4176 5.20391
10.0893 19856187 19856186 19856210 19856185 4.42803373661 29.9972 -8.28987 -14.5578
10.1816 19856186 19856185 19856210 19856184 4.17683491473 49.4473 -13.4596 -18.4098
10.2338 19856185 19856183 19856210 19856182 3.93726108473 30.6569 -9.02209 -23.7055
10.2936 19856183 19856182 19856210 19856181 3.70877426464 49.7193 -13.0694 -1.00291
10.3527 19856182 19856181 19856210 19856180 3.49086136926 51.6933 -3.1537 11.7898
10.4298 19856181 19856180 19856210 19856179 3.28303305796 94.8062 12.4766 31.2185
10.5079 19856180 19856179 19856210 19856178 3.08482263583 109.4 16.36 49.4684
10.5658 19856179 19856178 19856210 19856177 3.00813107163 90.693 18.5631 61.6309
10.586 19856178 19856177 19856210 19856176 2.89578500573 104.831 28.9466 67.7352
10.6753 19856177 19856176 19856210 19856175 2.73314261732 97.088 36.9761 159.0
10.7376 19856176 19856175 19856210 19856174 2.5772902716 89.7729 41.6345 169.809
10.7928 19856175 19856174 19856210 19856173 2.44422570455 65.188 51.8656 144.315
10.8486 19856174 19856173 19856210 19856172 2.31611074396 64.8578 55.2598 133.597
10.8958 19856173 19856172 19856210 19856171 2.20792547238 52.6611 27.7059 160.801
10.8984 19856172 19856171 19856210 19856170 2.1032696526 50.4641 21.2749 162.126
10.8985 19856171 19856168 19856210 19856167 1.82268925262 31.6702 -1.14322 177.838
10.9277 19856168 19856167 19856210 19856166 1.74357057433 31.0158 20.5324 156.753
10.9487 19856167 19856166 19856210 19856165 1.66666955611 4.99755 -4.59951 160.689
10.9709 19856166 19856165 19856210 19856164 1.60423452207 -9.22387 5.34853 152.547
10.9847 19856165 19856164 19856210 19856163 1.53123902916 -55.9248 29.2736 159.848
10.9913 19856164 19856163 19856210 19856162 1.47197484527 -88.5629 20.9788 160.97
11.0262 19856163 19856162 19856210 19856161 1.41409822037 -127.929 33.232 152.34
11.0441 19856162 19856161 19856210 19856160 1.3575766674 -95.2213 23.1958 125.254
11.0623 19856161 19856160 19856210 19856159 1.30237845991 -127.337 10.801 148.638
11.1033 19856160 19856159 19856210 19856158 1.24847261425 -118.926 -7.25853 149.662
11.1168 19856159 19856157 19856210 19856156 1.15460271236 -56.3821 65.1861 135.723
11.1295 19856157 19856156 19856210 19856155 1.11415056377 -51.312 46.3369 112.659
11.1403 19856156 19856155 19856210 19856154 1.07445789455 -76.1022 37.9728 99.0601
11.1434 19856155 19856153 19856210 19856152 0.997294225782 -122.822 -7.77778 67.3629
9.05524 19856340 19856339 19856346 19856338 6.01075739884 -0.521535 0.252715 -2.62779
9.08309 19856339 19856338 19856346 19856337 5.84661374788 -1.9376 1.60817 -2.83819
9.13154 19856338 19856337 19856346 19856336 5.52976580795 -3.36065 2.77725 -2.15137
9.1573 19856337 19856336 19856346 19856335 5.22758097313 -5.70478 2.05567 -6.4777
9.19223 19856336 19856335 19856346 19856334 4.99593346816 -4.50646 4.43247 -6.83192
9.20055 19856335 19856334 19856346 19856333 4.93938066349 -3.9687 4.45567 -7.93461
9.27938 19856334 19856333 19856346 19856332 4.66451770247 -4.68956 3.72636 -7.97945
9.31083 19856333 19856332 19856346 19856331 4.42803373661 -7.15265 2.49231 -3.64297
9.24362 19856385 19856384 19856392 19856383 6.01075739884 -6.73656 -5.35821 -13.3534
9.25828 19856384 19856383 19856392 19856382 5.84661374788 -4.52741 -4.60418 -6.40964
9.33716 19856383 19856380 19856392 19856379 4.99593346816 -10.4771 -15.7387 -1.21058
9.35483 19856380 19856379 19856392 19856378 4.93938066349 -7.1416 -12.8295 -0.830813
9.46621 19856379 19856378 19856392 19856377 4.66451770247 -8.18869 -20.7525 6.28215
9.50055 19856378 19856377 19856392 19856376 4.42803373661 -9.99048 -24.4807 6.00259
9.59477 19856377 19856375 19856392 19856374 4.00794511147 -0.410279 -9.78613 14.9991
9.00012 19856497 19856496 19856504 19856495 7.59510714987 2.83893 -0.226504 4.7393
9.14578 19856496 19856495 19856504 19856494 7.23627606617 5.22882 0.544165 6.70985
9.16852 19856495 19856493 19856504 19856492 6.85511726265 4.42524 -0.0591728 -1.39882
9.22651 19856493 19856492 19856504 19856491 6.49159774567 8.10412 3.17716 -7.62656
9.29457 19856492 19856491 19856504 19856490 6.14490120342 5.8408 0.165469 -3.03364
9.38815 19856491 19856490 19856504 19856489 6.01075739884 4.55266 2.85519 -8.98445
9.40646 19856490 19856489 19856504 19856488 5.84661374788 8.00609 5.70453 -7.74805
9.49951 19856489 19856488 19856504 19856487 5.52976580795 12.1721 5.0226 -9.50487
9.57262 19856488 19856487 19856504 19856486 5.22758097313 7.0265 1.93066 -8.53486
9.67629 19856487 19856486 19856504 19856485 4.99593346816 3.76114 -13.7995 8.47798
9.69647 19856486 19856484 19856504 19856483 4.66451770247 -3.2435 -11.6431 9.28921
9.7519 19856484 19856483 19856504 19856482 4.42803373661 5.66929 -13.3252 23.653
9.76836 19856483 19856481 19856504 19856480 4.00794511147 8.82374 -13.5888 18.4292
9.80003 19856481 19856479 19856504 19856478 3.70877426464 2.46844 -11.3208 14.1774
9.80874 19856479 19856478 19856504 19856477 3.49086136926 5.01325 -11.0488 13.9503
9.01298 19856546 19856545 19856564 19856544 4.00794511147 -1.07005 -9.18429 3.93992
9.2811 19856545 19856543 19856564 19856542 3.70877426464 1.14092 4.14663 -1.02516
9.34756 19856543 19856542 19856564 19856541 3.49086136926 -5.29385 -5.77189 14.9702
9.39609 19856542 19856541 19856564 19856540 3.28303305796 -12.0074 -9.62129 7.45142
9.56646 19856541 19856540 19856564 19856539 3.08482263583 -17.2601 19.8586 5.72068
9.63214 19856540 19856539 19856564 19856538 3.00813107163 -28.7223 28.1245 4.38613
9.08309 19856641 19856640 19856647 19856639 3.28303305796 -21.3809 -0.272024 -29.2425
9.15273 19856640 19856639 19856647 19856638 3.08482263583 -32.832 5.85425 -45.2767
9.0666 19856726 19856725 19856733 19856724 5.22758097313 5.56373 -0.630887 6.15079
9.10926 19856725 19856724 19856733 19856723 4.99593346816 6.00596 -4.39124 5.39079
9.17946 19856724 19856722 19856733 19856721 4.66451770247 6.00218 -6.0865 0.753931
9.18162 19856722 19856721 19856733 19856720 4.42803373661 2.39106 -3.88011 0.0667909
9.21472 19856721 19856720 19856733 19856719 4.17683491473 5.79767 -5.87927 0.0986864
9.2862 19856720 19856719 19856733 19856718 4.00794511147 6.67875 -7.68215 -4.52007
9.28956 19856719 19856718 19856733 19856717 3.93726108473 7.36842 -7.7309 -5.51837
9.30602 19856718 19856717 19856733 19856716 3.70877426464 8.98953 -14.2375 -7.02033
9.32031 19856717 19856716 19856733 19856715 3.49086136926 9.8933 -12.7548 -9.682
9.36902 19856716 19856712 19856733 19856711 2.89578500573 8.69845 -2.12294 -12.8202
9.38277 19856712 19856710 19856733 19856709 2.5772902716 14.0379 -12.6347 -14.5005
9.0098 19856783 19856782 19856791 19856781 4.66451770247 -13.4719 -9.35214 2.67585
9.0098 19856782 19856778 19856791 19856777 3.93726108473 -5.99107 -10.5561 -3.0785
9.11431 19856778 19856777 19856791 19856776 3.70877426464 -5.28941 -1.70363 -4.88037
9.18802 19856777 19856774 19856791 19856773 3.08482263583 1.11947 0.665801 -1.63371
9.0098 19856823 19856822 19856831 19856821 3.00813107163 -7.24766 4.45116 -27.8085
9.04062 19857050 19857049 19857063 19857048 4.17683491473 2.3271 13.7866 6.29216
9.14344 19857049 19857047 19857063 19857046 3.93726108473 3.85173 13.809 6.52821
9.22651 19857047 19857045 19857063 19857044 3.49086136926 2.20415 0.615808 9.53845
9.29457 19857045 19857044 19857063 19857043 3.28303305796 1.22965 -6.428 7.57752
9.30278 19857044 19857043 19857063 19857042 3.08482263583 -1.17409 4.97975 8.11882
9.3156 19857043 19857042 19857063 19857041 3.00813107163 -1.15507 9.29821 9.82826
9.32958 19857042 19857041 19857063 19857040 2.89578500573 -0.79439 3.65185 8.3062
9.36199 19857041 19857039 19857063 19857038 2.5772902716 -3.51298 16.4824 9.07004
9.0098 19857116 19857115 19857126 19857114 4.93938066349 -7.75125 2.8261 -4.31536
9.04358 19857115 19857113 19857126 19857112 4.42803373661 -5.0563 0.911434 -2.98894
9.1573 19857113 19857112 19857126 19857111 4.17683491473 -0.221397 -0.840825 2.01822
9.25648 19857112 19857110 19857126 19857109 3.93726108473 -4.14607 0.502292 -2.12585
9.04062 19857180 19857179 19857190 19857178 4.66451770247 -7.55737 -6.69027 -7.41125
9.04653 19857179 19857178 19857190 19857177 4.42803373661 -3.45701 -4.71063 -3.28675
9.34461 19857178 19857177 19857190 19857176 4.17683491473 -13.7216 -7.90953 -3.57249
9.40389 19857177 19857176 19857190 19857175 4.00794511147 -8.84457 -16.094 6.68505
9.54928 19857176 19857175 19857190 19857174 3.70877426464 -6.21059 -26.9435 17.6803
9.62445 19857175 19857174 19857190 19857173 3.49086136926 -6.59979 -29.5589 18.3305
9.64712 19857174 19857173 19857190 19857172 3.28303305796 -6.40309 -31.5991 19.7932
9.65802 19857173 19857172 19857190 19857171 3.08482263583 -3.2511 -31.8198 24.1304
9.67214 19857172 19857171 19857190 19857170 3.00813107163 -5.29662 -30.1931 23.0729
9.6925 19857171 19857162 19857190 19857161 1.90408954353 -5.08785 -33.3269 -5.19289
9.69581 19857162 19857161 19857190 19857160 1.82268925262 -4.32289 -31.2187 5.63691
9.7354 19857161 19857160 19857190 19857159 1.74357057433 -10.3868 -38.4657 10.2427
9.43856 19857228 19857227 19857228 19857226 3.93726108473 -3.09741 -17.8996 16.69
9.00012 19857264 19857263 19857278 19857262 3.93726108473 1.61047 -5.52763 -0.360907
9.00012 19857263 19857262 19857278 19857261 3.70877426464 -0.340289 -1.30958 2.14652
9.09111 19857262 19857261 19857278 19857260 3.49086136926 3.95397 -7.40438 -3.11973
9.14578 19857261 19857259 19857278 19857258 3.08482263583 3.43108 0.548521 -4.68675
9.19433 19857259 19857258 19857278 19857257 3.00813107163 3.39169 -0.110585 -3.31757
9.19641 19857258 19857257 19857278 19857256 2.89578500573 0.915198 -1.85668 -2.97636
9.17293 19857322 19857321 19857345 19857320 2.31611074396 13.1348 41.2456 -9.67251
9.2342 19857321 19857317 19857345 19857316 1.90408954353 16.3276 38.5213 -18.608
9.1193 19857493 19857492 19857499 19857491 5.52976580795 -5.85207 -7.58205 10.7452
9.18162 19857492 19857490 19857499 19857489 4.99593346816 -7.17626 -8.70284 4.89833
9.18376 19857490 19857489 19857499 19857488 4.93938066349 -5.65272 -9.1244 4.22368
9.22066 19857489 19857488 19857499 19857487 4.66451770247 -9.20322 -7.65751 7.41701
9.24918 19857488 19857487 19857499 19857486 4.42803373661 -6.84857 -5.43458 6.67696
9.27766 19857487 19857486 19857499 19857485 4.17683491473 -4.78306 -6.12647 7.62568
9.34313 19857486 19857485 19857499 19857484 4.00794511147 -5.67612 -6.99711 8.41813
9.35914 19857485 19857484 19857499 19857483 3.93726108473 -3.54651 -5.08825 7.18614
9.37319 19857484 19857483 19857499 19857482 3.70877426464 -2.11609 -6.97347 10.3587
9.3974 19857483 19857481 19857499 19857480 3.28303305796 -3.68308 -0.646004 8.66114
9.40389 19857481 19857480 19857499 19857479 3.08482263583 -5.1939 -3.3564 11.8864
9.47066 19857480 19857478 19857499 19857477 2.89578500573 0.115657 7.56773 14.8685
9.47176 19857478 19857476 19857499 19857475 2.5772902716 2.57077 -0.452896 15.7642
9.51375 19857476 19857474 19857499 19857473 2.31611074396 -0.212307 7.52976 13.6349
9.51475 19857474 19857473 19857499 19857472 2.20792547238 2.09379 11.624 11.2513
9.55204 19857473 19857472 19857499 19857471 2.1032696526 5.57791 13.7017 16.4267
9.58469 19857472 19857471 19857499 19857470 2.00202813925 9.24757 10.3664 6.93317
