logMh | fpID | subhaloID | main leaf ID | descID |  z
9.12424 110 109 115 108 13.3382482898 0.391135 0.121427 -3.59594
9.19848 109 108 115 107 12.6747021048 0.198929 -2.94871 -0.767006
9.40389 108 107 115 106 12.0418635439 -0.0499581 0.0933844 -3.17592
9.50872 107 106 115 105 11.4973879548 -4.96395 -2.57272 0.00560918
9.58807 106 105 115 104 10.9190331982 -2.85064 -0.598528 1.11703
9.68918 105 104 115 103 10.3674435724 -0.753767 -1.41624 4.69167
9.79482 104 103 115 102 9.99659046619 1.44405 3.37281 8.95768
9.96405 103 101 115 100 9.38877127194 -6.32104 10.9631 13.5634
10.0177 101 100 115 99 9.00233985416 -6.70776 17.7976 13.7515
10.182 100 99 115 98 8.9079991856 7.61884 15.0174 11.4987
10.3314 99 98 115 97 8.44947629437 -13.5633 16.9882 13.1733
10.5579 98 97 115 96 8.01217294887 -52.3942 12.4753 36.1266
10.8686 97 96 115 95 7.59510714987 -35.1792 -4.32206 36.9906
11.0201 96 95 115 94 7.23627606617 33.229 -63.9274 112.569
11.0648 95 94 115 93 7.00541704554 74.1525 -52.2396 94.0229
11.0877 94 93 115 92 6.85511726265 72.1981 -39.178 92.821
11.1178 93 92 115 91 6.49159774567 87.0774 -56.8571 47.6868
11.174 92 91 115 90 6.14490120342 64.1678 -81.789 66.7859
11.1833 91 90 115 89 6.01075739884 63.1115 -88.443 73.0343
11.6522 90 87 115 86 5.22758097313 175.167 -493.495 48.7899
11.8674 87 86 115 85 4.99593346816 -195.445 -211.127 -330.483
11.914 86 85 115 84 4.93938066349 -100.424 -151.264 -492.477
11.9989 85 84 115 83 4.66451770247 191.999 55.3306 -963.668
12.2965 84 81 115 80 4.00794511147 769.137 -154.18 -1494.49
12.3298 81 80 115 79 3.93726108473 914.008 -300.0 -1571.85
12.3992 80 79 115 78 3.70877426464 1002.93 -427.703 -1549.97
12.4837 79 78 115 77 3.49086136926 671.066 -184.065 -1436.77
12.5924 78 77 115 76 3.28303305796 306.4 454.461 -1471.92
12.8777 77 76 115 75 3.08482263583 -2095.1 -2048.21 -2279.3
12.914 76 75 115 74 3.00813107163 -2481.53 -1612.11 -2247.29
12.9874 75 74 115 73 2.89578500573 -1992.47 -1630.87 -1429.72
13.298 74 73 115 72 2.73314261732 -368.556 949.244 -4233.33
13.4345 73 71 115 70 2.44422570455 2125.17 1141.43 -3645.54
13.4773 71 70 115 69 2.31611074396 3057.44 100.918 -3499.3
13.5191 70 68 115 67 2.1032696526 4525.43 274.498 -5046.94
13.5335 68 67 115 66 2.00202813925 4692.28 224.175 -5447.01
13.5558 67 66 115 65 1.90408954353 4652.8 -615.434 -5278.87
13.5735 66 65 115 64 1.82268925262 4895.79 -905.362 -5457.67
13.599 65 64 115 63 1.74357057433 4550.38 -245.693 -5387.07
13.6139 64 63 115 62 1.66666955611 3880.78 194.51 -5467.14
13.6455 63 62 115 61 1.60423452207 3689.74 -284.857 -5036.09
13.6695 62 61 115 60 1.53123902916 3505.55 -433.114 -5347.57
13.6784 61 60 115 59 1.47197484527 3608.85 -666.696 -4875.39
13.6999 60 59 115 58 1.41409822037 3541.47 193.833 -5300.1
13.7214 59 58 115 57 1.3575766674 3043.89 1445.85 -6162.52
13.7371 58 57 115 56 1.30237845991 5392.8 646.622 -9267.79
13.7614 57 56 115 55 1.24847261425 7673.58 -2939.97 -10441.6
13.8021 56 55 115 54 1.20625808078 8423.99 -4920.83 -14176.4
13.839 55 54 115 53 1.15460271236 10993.4 -992.945 -19862.8
13.8606 54 52 115 51 1.07445789455 9770.88 -7549.82 -19833.8
13.8908 52 51 115 50 1.03551044566 12612.2 -9896.51 -24611.9
13.9206 51 50 115 49 0.997294225782 14735.7 -10163.0 -27644.4
13.9258 50 49 115 48 0.987852810816 14468.8 -11180.6 -27368.7
13.946 49 48 115 47 0.950531351585 15076.8 -12698.8 -28018.8
13.9589 48 47 115 46 0.923000816178 16400.6 -12161.6 -28031.1
13.9805 47 46 115 45 0.886896937575 16534.7 -12366.9 -29061.5
13.9995 46 45 115 44 0.851470900625 19032.6 -12142.3 -30846.1
14.0205 45 44 115 43 0.816709979012 19667.9 -15269.5 -32731.1
14.0288 44 43 115 42 0.791068248946 20408.4 -13720.9 -34460.8
14.0597 43 42 115 41 0.757441372616 21523.5 -13407.0 -38097.6
14.0819 42 41 115 40 0.732636182022 23230.7 -11714.1 -42517.8
14.1009 41 40 115 39 0.700106353719 24806.7 -9546.49 -46066.7
14.1011 40 39 115 38 0.676110411213 23212.8 -11360.2 -45035.1
14.1068 39 38 115 37 0.644641840685 22185.4 -10804.2 -44413.5
14.1185 38 37 115 36 0.621428745243 21750.2 -10655.0 -43880.6
14.1274 37 36 115 35 0.598543288188 21723.3 -10777.6 -43789.0
14.1458 36 35 115 34 0.575980845108 20389.4 -9718.42 -43833.4
14.1708 35 34 115 33 0.546392183141 22433.7 -2111.88 -47783.5
14.1756 34 33 115 32 0.524565820434 21516.5 -2571.25 -48364.9
14.1853 33 32 115 31 0.503047523245 23384.1 2443.6 -52040.4
14.1954 32 30 115 29 0.460917794181 25825.4 10525.3 -57440.7
14.2022 30 29 115 28 0.440297849248 26288.8 14872.1 -58666.9
14.2029 29 28 115 27 0.419968941997 25048.8 14933.9 -57295.0
14.2102 28 27 115 26 0.399926964614 24188.1 16164.1 -55934.9
14.2241 27 26 115 25 0.38016786726 24287.3 19115.4 -55443.6
14.2405 26 25 115 24 0.360687657262 24018.1 19921.2 -54735.4
14.2494 25 23 115 22 0.328829724206 24367.8 24384.0 -54943.3
14.27 23 22 115 21 0.310074120128 28213.3 32846.5 -56847.9
14.2781 22 21 115 20 0.291583239722 29006.5 35257.5 -55326.4
14.2925 21 20 115 19 0.273353346578 28939.4 35671.1 -54763.8
14.302 20 19 115 18 0.261343256161 29200.6 33758.0 -53388.1
14.3129 19 18 115 17 0.243540181555 27044.8 31844.9 -52979.8
14.3129 18 17 115 16 0.22598838626 26650.9 34057.8 -53350.8
14.3194 17 16 115 15 0.214425035514 25678.2 31649.0 -53512.2
14.3292 16 15 115 14 0.197284182376 25093.0 30381.0 -55110.3
14.3393 15 14 115 13 0.180385261706 24802.9 29773.8 -55623.3
14.3493 14 13 115 12 0.169252033244 24210.0 26947.7 -56644.0
14.3629 13 12 115 11 0.152748768902 23304.3 24808.3 -58664.3
14.3771 12 11 115 10 0.14187620397 21550.3 17126.3 -57354.5
14.3858 11 10 115 9 0.125759332411 20019.4 13403.4 -56664.5
14.392 10 9 115 8 0.109869940459 18450.1 11867.5 -55720.6
14.3991 9 8 115 7 0.0994018026302 17590.3 8588.99 -54091.5
14.4144 8 7 115 6 0.0838844307975 15470.4 2903.26 -54115.3
14.427 7 6 115 5 0.0736613846564 15411.2 4078.92 -55220.7
14.4367 6 5 115 4 0.0585073227945 13935.7 -391.301 -54705.4
14.4481 5 4 115 3 0.0485236299818 13152.1 -2446.02 -55591.3
14.4536 4 3 115 2 0.0337243718735 12150.6 -5073.8 -54246.3
14.4557 3 0 115 -1 2.22044604925e-16 11546.5 -7285.37 -52573.6
9.11179 125 124 126 123 10.3674435724 -9.30571 12.7219 -28.0085
9.09375 165 164 167 163 12.0418635439 8.75713 -5.33561 3.54032
9.30278 164 163 167 162 11.4973879548 7.04037 -2.70819 1.27723
9.38412 163 162 167 161 10.9190331982 6.68761 -4.15108 0.920108
9.53618 162 161 167 160 10.3674435724 11.5292 -23.1907 8.37089
9.76947 161 160 167 159 9.99659046619 -4.03454 -1.81084 -30.1138
9.81428 160 159 167 158 9.84138043947 2.76392 -15.3977 -8.05331
9.8666 159 158 167 157 9.38877127194 17.8373 -31.3329 10.8972
9.01614 193 192 196 191 9.38877127194 0.483548 1.12346 0.85137
9.33566 192 191 196 190 9.00233985416 -1.29473 3.07507 -7.0281
9.36481 191 189 196 188 8.44947629437 -4.82081 7.55838 -1.07058
9.01614 207 206 215 205 9.38877127194 -0.594216 0.982421 -2.87211
9.02239 206 204 215 203 8.9079991856 1.79186 1.4449 -6.85865
9.11179 273 272 276 271 12.0418635439 8.08271 -6.94785 -6.29253
9.16852 272 271 276 270 11.4973879548 7.12565 -5.06727 -4.51677
9.29787 271 270 276 269 10.9190331982 8.84026 -8.07652 -5.52244
9.43377 270 269 276 268 10.3674435724 8.38081 -16.1338 -13.266
9.49011 269 268 276 267 9.99659046619 7.49443 -17.1528 -10.4043
9.50567 268 267 276 266 9.84138043947 5.01162 -17.1773 -9.3469
9.61186 267 266 276 265 9.38877127194 10.984 -24.2405 -13.8652
9.05524 367 366 371 365 14.0339921445 0.568511 2.16119 0.0737183
9.21671 366 365 371 364 13.3382482898 1.01254 3.95106 -0.725215
9.26543 365 364 371 363 12.6747021048 0.0212855 6.08995 0.0862889
9.35048 364 363 371 362 12.0418635439 -1.01026 3.62469 1.5564
9.40646 363 362 371 361 11.4973879548 -2.90244 3.96456 1.3823
9.5256 362 361 371 360 10.9190331982 -3.70143 4.66273 6.67615
9.61899 361 360 371 359 10.3674435724 -2.22208 8.37232 18.5967
9.68244 360 359 371 358 9.99659046619 -6.42083 4.21476 16.2804
9.78528 359 357 371 356 9.38877127194 -15.5518 8.51318 6.68558
9.80975 357 356 371 355 9.00233985416 -23.7243 1.62774 3.1525
9.81976 356 354 371 353 8.44947629437 -21.5066 2.91477 -2.8533
9.0066 398 397 405 396 9.99659046619 -0.626669 -1.53688 -1.62452
9.06378 397 396 405 395 9.84138043947 0.989345 -5.2399 -2.2224
9.09637 396 395 405 394 9.38877127194 2.49904 -4.95111 -1.56804
9.10926 395 394 405 393 9.00233985416 2.91499 -8.66373 -2.43039
9.07216 429 428 431 427 12.0418635439 -2.60205 -0.151053 -2.41695
9.10415 428 427 431 426 11.4973879548 -2.06512 -0.00321309 -1.56846
9.40518 427 426 431 425 10.9190331982 5.16042 -3.30546 -1.48208
9.60462 426 425 431 424 10.3674435724 3.40977 -1.98922 2.75867
9.8517 425 424 431 423 9.99659046619 -24.7223 13.1114 -16.9352
9.85899 424 422 431 421 9.38877127194 -14.3985 5.71839 5.91643
10.1023 422 421 431 420 9.00233985416 -28.0859 11.8265 -15.9422
10.3209 421 419 431 418 8.44947629437 -34.3228 6.92017 42.3726
9.04653 448 447 450 446 12.0418635439 -2.665 -7.86587 -1.23179
9.08309 447 446 450 445 11.4973879548 -1.83139 -7.73954 -0.377887
9.34902 473 472 475 471 11.4973879548 -13.1978 0.0900833 -1.25504
9.48157 472 471 475 470 10.9190331982 -21.3699 -32.0209 -17.1331
9.60946 471 467 475 466 9.38877127194 -16.0746 -0.658861 0.427996
9.07492 484 483 485 482 10.9190331982 1.94314 -2.39139 0.917144
9.19013 512 511 514 510 9.99659046619 18.6795 6.67702 -18.8496
9.24918 511 509 514 508 9.38877127194 5.86306 0.67701 -10.9152
9.31083 509 508 514 507 9.00233985416 -1.57181 1.33399 -5.85497
9.35194 508 507 514 506 8.9079991856 -2.40952 1.92839 -2.99725
9.38681 507 504 514 503 7.59510714987 0.281653 -2.64784 8.77921
9.52169 504 503 514 502 7.23627606617 -8.24769 3.14159 9.89982
9.53618 503 501 514 500 6.85511726265 -8.72035 -8.82629 11.9909
9.04358 522 521 523 520 9.84138043947 -3.49374 -2.04391 10.1008
9.04062 575 574 579 573 12.0418635439 5.17991 -0.79905 -4.35262
9.21671 574 573 579 572 11.4973879548 6.43656 2.46524 -6.59428
9.34016 573 571 579 570 10.3674435724 3.19443 -2.19708 -8.68956
9.36199 571 570 579 569 9.99659046619 3.05849 -4.62311 -9.44725
9.40646 570 569 579 568 9.84138043947 2.99622 -4.30218 -8.20666
9.45376 569 568 579 567 9.38877127194 1.22118 -4.872 -8.81449
9.53902 568 567 579 566 9.00233985416 0.711572 -1.41771 -7.31156
9.56379 567 565 579 564 8.44947629437 2.99901 2.76859 -2.82341
9.68244 565 564 579 563 8.01217294887 -6.12118 -6.54096 3.96117
9.71005 564 563 579 562 7.59510714987 -9.84362 -8.08725 5.03709
9.00337 641 640 648 639 9.84138043947 1.45518 -2.57226 4.55201
9.01614 640 639 648 638 9.38877127194 3.98572 -3.27723 4.5787
9.06096 639 636 648 635 8.44947629437 0.88735 -0.493111 2.82319
9.08309 636 635 648 634 8.01217294887 -2.57624 0.0306586 2.09131
9.18802 635 634 648 633 7.59510714987 3.31471 -6.1913 4.7114
9.24733 634 631 648 630 6.85511726265 3.87983 -8.58419 2.91241
9.07492 697 696 698 695 8.9079991856 18.294 -15.6703 3.28843
9.11179 929 928 932 927 9.99659046619 21.0928 9.16988 0.591092
9.14578 928 926 932 925 9.38877127194 15.8912 6.71827 1.76523
9.19433 926 925 932 924 9.00233985416 13.0793 6.60653 -2.20247
9.21272 925 923 932 922 8.44947629437 10.945 3.13526 -2.31735
9.85944 923 922 932 921 8.01217294887 -16.0405 17.2818 -1.15944
10.0034 922 921 932 920 7.59510714987 -7.13714 12.6668 28.6564
10.1085 921 920 932 919 7.23627606617 -24.3868 9.05656 88.7428
10.2234 920 919 932 918 7.00541704554 2.62739 37.185 74.1504
10.3399 919 917 932 916 6.49159774567 30.1074 21.1455 16.628
9.38815 968 967 973 966 8.44947629437 -11.3331 11.169 -18.9067
9.02548 1003 1002 1004 1001 9.84138043947 -3.98188 -1.33172 -3.39306
9.2361 1002 1001 1004 1000 9.38877127194 -15.914 7.898 -10.2448
9.0098 1026 1025 1030 1024 10.9190331982 3.22196 -3.47719 2.35184
9.06378 1025 1024 1030 1023 10.3674435724 3.89565 1.03293 1.67592
9.18376 1024 1021 1030 1020 9.38877127194 3.52166 -3.25395 2.33938
9.22262 1021 1020 1030 1019 9.00233985416 1.99633 -1.08185 1.03827
9.24548 1047 1046 1052 1045 9.00233985416 1.94762 -10.7888 -0.913468
9.28956 1046 1040 1052 1039 7.00541704554 3.81265 0.117354 -7.89662
9.37319 1040 1039 1052 1038 6.85511726265 4.7453 1.40983 -7.38251
9.06378 1067 1066 1076 1065 7.59510714987 12.7697 -6.68134 -6.61464
9.2742 1066 1059 1076 1058 5.84661374788 16.5728 2.31398 7.96865
9.16407 1078 1077 1082 1059 6.01075739884 10.2911 3.63216 6.03176
9.0098 1268 1267 1275 1266 6.85511726265 1.81588 -0.43209 -1.19441
9.02548 1267 1266 1275 1265 6.49159774567 1.78302 0.621561 -3.71424
9.05235 1266 1264 1275 1263 6.01075739884 0.714535 0.490064 -5.72505
9.19433 1264 1263 1275 1262 5.84661374788 -1.64653 34.9189 -12.7653
9.07216 1395 1394 1397 1393 10.3674435724 -2.04349 -4.21715 -0.868816
9.15502 1394 1393 1397 1392 9.99659046619 -2.65284 -6.85811 -3.85365
9.31874 1393 1391 1397 1390 9.38877127194 -1.94687 4.9826 -0.00624139
9.39346 1391 1390 1397 1389 9.00233985416 -6.97953 5.06478 7.29171
9.42033 1390 1389 1397 1388 8.9079991856 -8.86938 4.74072 6.29988
9.49326 1389 1388 1397 1387 8.44947629437 -11.4035 0.819418 8.00912
9.56468 1388 1387 1397 1386 8.01217294887 -6.87502 3.52542 7.06507
9.59725 1387 1386 1397 1385 7.59510714987 -3.22509 5.5672 7.55079
9.626 1386 1385 1397 1384 7.23627606617 -5.84292 5.34917 8.53095
9.67145 1385 1384 1397 1383 7.00541704554 -4.00885 3.04628 6.56303
9.736 1384 1382 1397 1381 6.49159774567 13.2898 8.88571 -2.3107
9.76332 1382 1381 1397 1380 6.14490120342 12.4226 8.99884 -10.1538
9.10926 1424 1423 1428 1422 9.84138043947 14.1895 -5.7463 0.856425
9.27072 1423 1421 1428 1420 9.00233985416 9.40025 -3.31435 4.67531
9.27594 1421 1417 1428 1416 7.59510714987 -0.0273999 -1.6637 -1.33581
9.32651 1417 1412 1428 1411 6.14490120342 -3.71477 -5.71285 1.6599
9.2929 1449 1448 1457 1447 7.59510714987 -6.15872 7.86149 9.79827
9.32497 1448 1444 1457 1443 6.49159774567 0.135236 5.07636 14.4603
9.37181 1444 1442 1457 1441 6.01075739884 14.8982 -9.12603 19.7136
9.4026 1442 1441 1457 1440 5.84661374788 6.40947 -3.84168 15.8352
9.19013 1477 1476 1484 1475 7.59510714987 -10.0277 0.248458 -9.95682
9.24175 1476 1475 1484 1474 7.23627606617 -13.3457 5.22308 -8.59579
9.27594 1475 1473 1484 1472 6.85511726265 -11.5485 5.30845 -4.24739
9.27938 1473 1472 1484 1471 6.49159774567 -11.35 -3.43834 -8.2114
9.4026 1472 1471 1484 1470 6.14490120342 -5.46163 -10.608 -7.9083
9.02548 1499 1498 1507 1497 7.23627606617 -0.141821 -4.65517 -4.03243
9.18589 1498 1496 1507 1495 6.85511726265 -17.9912 6.46226 11.2697
9.20055 1496 1494 1507 1493 6.14490120342 -16.8044 5.84163 12.5084
9.21072 1494 1493 1507 1492 6.01075739884 -16.5877 3.40804 10.4757
9.23037 1493 1492 1507 1491 5.84661374788 -14.5455 5.46612 7.08099
9.02239 1524 1523 1533 1522 6.14490120342 -2.19223 2.43982 -3.93777
9.06096 1523 1522 1533 1521 6.01075739884 -0.338793 3.16228 -5.87779
9.07492 1522 1518 1533 1517 4.99593346816 2.69938 0.148675 -5.68822
9.08038 1518 1516 1533 1515 4.66451770247 -0.645335 -3.45082 -3.24058
9.09637 1516 1515 1533 1514 4.42803373661 -1.37942 -4.54442 -3.16469
9.13394 1545 1544 1550 1543 6.49159774567 35.6051 -7.10617 -2.91646
9.27938 1544 1543 1550 1542 6.14490120342 14.2403 -0.116476 2.03984
9.38815 1561 1560 1573 1559 6.14490120342 9.22347 -31.1033 -23.0064
9.01928 1592 1591 1599 1590 8.44947629437 -4.82594 0.842585 -13.5958
9.01928 1591 1590 1599 1589 8.01217294887 -2.68293 0.785052 -11.6308
9.08309 1590 1588 1599 1587 7.23627606617 -1.50707 -1.4671 -3.58132
9.00337 1615 1614 1624 1613 6.01075739884 -1.406 -2.61775 -14.6354
9.01298 1614 1612 1624 1611 5.52976580795 9.29098 -8.40557 -7.22115
9.16407 1612 1611 1624 1610 5.22758097313 0.370346 -13.3477 -4.21207
9.00012 1633 1632 1642 1631 5.22758097313 0.980422 -4.83569 -6.41947
9.07216 1655 1654 1662 1653 6.49159774567 -23.4847 7.82053 6.57717
9.02548 1948 1947 1960 1946 7.00541704554 4.75938 0.233622 2.28053
9.02548 1947 1946 1960 1945 6.85511726265 4.38732 1.14712 2.64242
9.04653 1946 1945 1960 1944 6.49159774567 5.32444 2.48757 0.962364
9.01298 1974 1973 1977 1972 7.59510714987 0.626756 -4.32051 18.5009
9.02239 1973 1971 1977 1970 7.00541704554 1.46865 -8.44019 19.5921
9.12912 1971 1970 1977 1969 6.85511726265 4.08768 0.399216 19.9198
9.04062 2246 2245 2248 2244 14.0339921445 4.63091 2.13972 -9.60122
9.18376 2245 2244 2248 2243 13.3382482898 -7.61868 2.07317 -4.83603
9.23988 2244 2243 2248 2242 12.6747021048 -0.962109 -0.499189 0.0324288
9.54836 2243 2242 2248 2241 12.0418635439 2.2297 -1.01737 0.131831
9.63819 2242 2241 2248 2240 11.4973879548 3.46173 0.561087 -0.94681
9.77554 2241 2240 2248 2239 10.9190331982 -8.88766 -6.02411 0.756702
9.92819 2240 2239 2248 2238 10.3674435724 -8.21477 -9.61482 -2.78899
10.0412 2239 2238 2248 2237 9.99659046619 -8.94043 -5.40797 -16.5854
10.0733 2238 2237 2248 2236 9.84138043947 -5.70129 -5.15867 -11.3691
10.1645 2237 2236 2248 2235 9.38877127194 -7.59238 -3.50006 -2.82191
10.3115 2236 2235 2248 2234 9.00233985416 -17.6874 1.03944 5.70568
10.3375 2235 2234 2248 2233 8.9079991856 -17.8818 -0.333073 16.4164
10.4573 2234 2233 2248 2232 8.44947629437 -59.1701 38.6619 63.9477
10.463 2233 2232 2248 2231 8.01217294887 -29.8233 2.06342 18.456
10.5668 2232 2231 2248 2230 7.59510714987 38.4567 -48.1721 9.18536
10.9408 2231 2228 2248 2227 6.85511726265 69.6788 -85.949 17.8427
11.2829 2228 2226 2248 2225 6.14490120342 -14.1039 -74.6878 95.4475
11.3036 2226 2225 2248 2224 6.01075739884 -24.3543 -87.6362 103.998
11.4526 2225 2224 2248 2223 5.84661374788 18.2412 -33.5031 -134.63
11.583 2224 2223 2248 2222 5.52976580795 127.419 98.2076 -355.808
12.1237 2223 2218 2248 2217 4.42803373661 75.0978 263.263 -1242.44
12.2397 2218 2217 2248 2216 4.17683491473 591.194 -92.1428 -1591.75
9.11681 2281 2280 2285 2279 10.3674435724 -2.07308 -11.9622 -4.05749
9.15042 2280 2278 2285 2277 9.84138043947 4.1409 -4.4013 -1.4623
9.15956 2278 2277 2285 2276 9.38877127194 4.07708 -6.64504 -0.87911
9.02855 2308 2307 2313 2306 10.3674435724 -1.45414 -3.88906 2.20584
9.03463 2370 2369 2374 2368 10.9190331982 -1.16221 -0.275368 -3.16598
9.11431 2369 2368 2374 2367 10.3674435724 0.0627134 -2.27895 -1.43271
9.16852 2368 2367 2374 2366 9.99659046619 1.34493 -0.985388 -1.37684
9.19641 2367 2366 2374 2365 9.84138043947 0.11544 -2.51196 -0.490383
9.21072 2366 2365 2374 2364 9.38877127194 0.552355 -1.42939 -3.85991
9.25284 2365 2364 2374 2363 9.00233985416 3.47427 -4.03 -1.28312
9.41156 2364 2363 2374 2362 8.9079991856 -12.8315 -5.47743 -4.26038
9.55478 2363 2361 2374 2360 8.01217294887 -3.72488 -18.427 -3.94405
9.72074 2361 2360 2374 2359 7.59510714987 -14.1865 -9.52957 -23.1672
9.75765 2360 2358 2374 2357 7.00541704554 7.53376 -2.82072 -25.7364
9.76669 2358 2357 2374 2356 6.85511726265 8.00923 2.59992 -23.919
9.08845 2382 2381 2385 2380 9.38877127194 -9.50442 13.7679 -10.6326
9.19641 2381 2380 2385 2379 9.00233985416 -19.3959 6.35101 -8.27531
9.12178 2400 2399 2407 2398 9.38877127194 -1.21325 1.73018 7.09446
9.34461 2399 2396 2407 2395 8.44947629437 -11.669 4.58093 14.1605
9.03463 2418 2417 2424 2416 7.59510714987 4.59212 -6.44754 -4.43371
9.07492 2417 2416 2424 2415 7.23627606617 2.82572 -6.82297 -5.08922
9.11431 2416 2415 2424 2414 7.00541704554 -6.64869 -6.31965 -2.62521
9.13154 2509 2508 2512 2507 10.9190331982 -3.03446 -5.17833 4.10046
9.2026 2508 2507 2512 2506 10.3674435724 -2.25256 1.20967 8.40358
9.43856 2507 2506 2512 2505 9.99659046619 -0.0473995 -3.31151 -2.62954
9.58298 2506 2505 2512 2504 9.84138043947 0.81852 5.00851 -3.84426
9.71574 2505 2504 2512 2503 9.38877127194 -3.4966 8.79177 -7.63434
9.81728 2504 2503 2512 2502 9.00233985416 -5.48368 6.13871 -5.5846
9.83147 2503 2502 2512 2501 8.9079991856 -7.53326 4.01648 -3.22364
9.87886 2502 2501 2512 2500 8.44947629437 -10.1193 4.38936 -3.13097
10.2228 2501 2500 2512 2499 8.01217294887 -23.3434 -11.0302 -30.3408
10.3329 2500 2499 2512 2498 7.59510714987 -22.5582 -24.0589 -22.4571
10.4915 2499 2498 2512 2497 7.23627606617 -9.48841 -21.8134 -61.3462
10.6717 2498 2497 2512 2496 7.00541704554 15.5282 -23.2178 -48.381
11.204 2497 2495 2512 2494 6.49159774567 -0.572675 -60.9093 122.76
9.05235 2521 2520 2524 2519 10.3674435724 -4.06292 -7.79168 0.886386
9.08038 2597 2596 2600 2595 12.0418635439 -0.842548 0.901396 4.93646
