logMh | fpID | subhaloID | main leaf ID | descID |  z
9.08845 28134748 28134747 28134748 28134746 13.3382482898 -4.18717 -4.29562 -0.751144
9.40518 28134747 28134746 28134748 28134745 12.6747021048 2.7925 0.463757 -1.75382
9.53428 28134746 28134744 28134748 28134743 11.4973879548 -0.483928 -2.46122 -3.1077
9.62056 28134744 28134743 28134748 28134742 10.9190331982 3.66149 0.0690101 -4.45476
9.64564 28134743 28134742 28134748 28134741 10.3674435724 1.77365 1.4725 -6.11514
9.68717 28134742 28134741 28134748 28134740 9.99659046619 6.38407 4.40439 -8.25191
9.69843 28134741 28134740 28134748 28134739 9.84138043947 4.6054 3.49693 -5.50566
9.72996 28134740 28134739 28134748 28134738 9.38877127194 5.34253 2.4289 -6.96299
9.79166 28134739 28134738 28134748 28134737 9.00233985416 5.42636 -7.86512 -2.78956
9.80003 28134738 28134737 28134748 28134736 8.9079991856 5.52925 -6.34387 -2.70971
9.88316 28134737 28134736 28134748 28134735 8.44947629437 -2.4678 0.434365 -2.87902
10.0738 28134736 28134735 28134748 28134734 8.01217294887 0.722322 2.18559 18.8099
10.1173 28134735 28134734 28134748 28134733 7.59510714987 13.0052 4.98451 18.4462
10.2077 28134734 28134733 28134748 28134732 7.23627606617 14.1997 11.3449 24.8339
10.2854 28134733 28134732 28134748 28134731 7.00541704554 21.4095 12.5106 28.1089
10.3281 28134732 28134731 28134748 28134730 6.85511726265 18.017 8.75923 22.3326
10.4195 28134731 28134730 28134748 28134729 6.49159774567 -1.81525 29.7539 1.10285
10.5814 28134730 28134729 28134748 28134728 6.14490120342 -27.061 -1.46927 -2.61619
11.011 28134729 28134724 28134748 28134723 4.99593346816 -185.713 -166.88 1.22504
11.1765 28134724 28134722 28134748 28134721 4.66451770247 -225.653 -242.648 34.1222
11.3158 28134722 28134720 28134748 28134719 4.00794511147 -130.681 -191.861 66.6455
11.328 28134720 28134719 28134748 28134718 3.93726108473 -121.435 -192.084 71.9881
11.3987 28134719 28134718 28134748 28134717 3.70877426464 -78.4477 -243.162 80.7385
11.4576 28134718 28134717 28134748 28134716 3.49086136926 -76.0058 -304.126 91.9183
11.4906 28134717 28134716 28134748 28134715 3.28303305796 -72.1689 -405.795 78.8863
11.508 28134716 28134715 28134748 28134714 3.08482263583 -74.773 -422.044 75.8254
11.5263 28134715 28134714 28134748 28134713 3.00813107163 -95.7449 -457.343 66.5465
11.5671 28134714 28134713 28134748 28134712 2.89578500573 -85.988 -481.469 81.325
11.597 28134713 28134712 28134748 28134711 2.73314261732 -69.8272 -481.997 61.8449
11.6403 28134712 28134711 28134748 28134710 2.5772902716 -83.2937 -528.371 25.0912
11.6536 28134711 28134710 28134748 28134709 2.44422570455 -90.5794 -487.296 46.8775
11.6949 28134710 28134709 28134748 28134708 2.31611074396 -117.617 -506.383 44.6026
11.7123 28134709 28134708 28134748 28134707 2.20792547238 -130.43 -501.781 25.2805
11.7168 28134708 28134701 28134748 28134700 1.60423452207 -213.018 -470.26 -26.7223
11.7469 28134701 28134700 28134748 28134699 1.53123902916 -265.622 -583.842 63.5027
11.7669 28134700 28134698 28134748 28134697 1.41409822037 -244.88 -563.126 98.6286
11.7766 28134698 28134697 28134748 28134696 1.3575766674 -282.613 -552.542 115.691
11.7933 28134697 28134696 28134748 28134695 1.30237845991 -342.679 -604.771 210.311
11.7983 28134696 28134695 28134748 28134694 1.24847261425 -354.73 -582.772 200.639
11.8048 28134695 28134694 28134748 28134693 1.20625808078 -335.1 -651.522 286.487
11.8114 28134694 28134693 28134748 28134692 1.15460271236 -329.833 -611.516 258.423
11.8141 28134693 28134692 28134748 28134691 1.11415056377 -329.062 -583.678 235.013
11.8244 28134692 28134691 28134748 28134690 1.07445789455 -264.103 -529.987 317.953
11.8319 28134691 28134690 28134748 28134689 1.03551044566 -275.21 -569.794 340.348
11.8353 28134690 28134689 28134748 28134688 0.997294225782 -221.851 -556.963 351.415
11.839 28134689 28134688 28134748 28134687 0.987852810816 -214.458 -549.723 360.757
11.8447 28134688 28134687 28134748 28134686 0.950531351585 -206.658 -544.701 386.243
11.8573 28134687 28134686 28134748 28134685 0.923000816178 -198.383 -583.276 394.929
11.8608 28134686 28134685 28134748 28134684 0.886896937575 -181.569 -579.948 373.086
11.8717 28134685 28134684 28134748 28134683 0.851470900625 -200.226 -619.296 422.751
11.8809 28134684 28134683 28134748 28134682 0.816709979012 -204.979 -669.197 398.629
11.8903 28134683 28134682 28134748 28134681 0.791068248946 -267.521 -708.374 449.32
11.9005 28134682 28134681 28134748 28134680 0.757441372616 -289.801 -765.87 474.202
11.9074 28134681 28134680 28134748 28134679 0.732636182022 -302.193 -810.519 503.952
11.9091 28134680 28134678 28134748 28134677 0.676110411213 -308.478 -767.822 446.435
11.923 28134678 28134677 28134748 28134676 0.644641840685 -314.81 -747.553 488.806
11.93 28134677 28134676 28134748 28134675 0.621428745243 -351.474 -838.078 482.727
11.9387 28134676 28134675 28134748 28134674 0.598543288188 -374.449 -858.895 519.27
11.9431 28134675 28134674 28134748 28134673 0.575980845108 -385.421 -857.442 532.484
11.9479 28134674 28134673 28134748 28134672 0.546392183141 -401.823 -868.433 534.82
11.9531 28134673 28134672 28134748 28134671 0.524565820434 -421.488 -873.273 547.54
11.9553 28134672 28134671 28134748 28134670 0.503047523245 -433.248 -876.777 533.392
11.9581 28134671 28134670 28134748 28134669 0.481832943421 -470.994 -891.194 554.691
11.9596 28134670 28134669 28134748 28134668 0.460917794181 -457.925 -850.317 589.707
11.9623 28134669 28134668 28134748 28134667 0.440297849248 -440.627 -840.724 595.316
11.9653 28134668 28134667 28134748 28134666 0.419968941997 -454.834 -871.722 607.573
11.9683 28134667 28134666 28134748 28134665 0.399926964614 -428.665 -825.076 622.589
11.9749 28134666 28134665 28134748 28134664 0.38016786726 -473.037 -853.5 661.105
11.9782 28134665 28134664 28134748 28134663 0.360687657262 -428.133 -846.699 655.128
11.9804 28134664 28134663 28134748 28134662 0.347853841858 -429.491 -858.966 673.329
11.9863 28134663 28134662 28134748 28134661 0.328829724206 -420.81 -851.548 696.611
11.9892 28134662 28134661 28134748 28134660 0.310074120128 -370.861 -840.936 690.278
11.9919 28134661 28134660 28134748 28134659 0.291583239722 -374.238 -846.027 705.346
11.9971 28134660 28134659 28134748 28134658 0.273353346578 -346.401 -856.776 724.559
11.9985 28134659 28134658 28134748 28134657 0.261343256161 -323.376 -848.59 727.489
12.0002 28134658 28134657 28134748 28134656 0.243540181555 -318.732 -863.513 742.981
12.0072 28134657 28134656 28134748 28134655 0.22598838626 -275.763 -938.281 813.596
12.0116 28134656 28134654 28134748 28134653 0.197284182376 -248.351 -936.759 838.73
12.015 28134654 28134653 28134748 28134652 0.180385261706 -252.979 -993.652 854.08
12.0168 28134653 28134652 28134748 28134651 0.169252033244 -240.656 -996.892 876.881
12.0188 28134652 28134651 28134748 28134650 0.152748768902 -260.476 -988.492 876.685
12.0208 28134651 28134650 28134748 28134649 0.14187620397 -257.865 -987.719 883.39
12.0235 28134650 28134649 28134748 28134648 0.125759332411 -264.033 -1040.77 899.552
12.0261 28134649 28134648 28134748 28134647 0.109869940459 -261.546 -1045.61 930.564
12.0289 28134648 28134647 28134748 28134646 0.0994018026302 -264.936 -1100.4 929.43
12.0326 28134647 28134646 28134748 28134645 0.0838844307975 -264.899 -1100.61 957.786
12.0358 28134646 28134645 28134748 28134644 0.0736613846564 -266.906 -1129.98 964.773
12.0399 28134645 28134644 28134748 28134643 0.0585073227945 -283.204 -1171.36 984.257
12.0419 28134644 28134643 28134748 28134642 0.0485236299818 -279.625 -1175.36 997.38
12.045 28134643 28134642 28134748 28134641 0.0337243718735 -284.641 -1203.56 1015.35
12.0461 28134642 28134641 28134748 28134640 0.0239744283828 -296.769 -1220.15 1027.4
12.0484 28134641 28134640 28134748 28134639 0.00952166696794 -292.715 -1221.67 1031.79
12.0494 28134640 28134639 28134748 -1 2.22044604925e-16 -292.454 -1200.35 1061.66
9.05235 28134773 28134772 28134777 28134771 10.3674435724 2.13556 -0.642331 3.72098
9.07216 28134772 28134771 28134777 28134770 9.99659046619 2.9461 -0.710316 2.93334
9.16852 28134771 28134769 28134777 28134768 9.38877127194 -2.07364 5.55432 -3.54175
9.18162 28134769 28134767 28134777 28134766 8.9079991856 -2.20794 4.6619 -4.67257
9.0098 28134782 28134781 28134783 28134780 8.44947629437 15.5294 -0.57589 -13.3456
9.06378 28134808 28134807 28134810 28134806 12.0418635439 -5.42598 1.01625 -0.0928137
9.09898 28134807 28134806 28134810 28134805 11.4973879548 -2.88193 -2.78983 3.08185
9.19848 28134806 28134805 28134810 28134804 10.9190331982 1.87675 -3.11745 3.24421
9.39214 28134805 28134804 28134810 28134803 10.3674435724 11.9661 -11.0869 7.45098
9.44447 28134804 28134803 28134810 28134802 9.99659046619 6.90357 -9.19505 4.70385
9.59725 28134803 28134802 28134810 28134801 9.84138043947 2.76531 -0.311297 0.0713231
9.74196 28134802 28134801 28134810 28134800 9.38877127194 -2.07005 4.23115 0.270278
9.82124 28134801 28134800 28134810 28134799 9.00233985416 -6.13667 9.73275 0.75932
9.84194 28134800 28134799 28134810 28134798 8.9079991856 -4.0975 9.40028 1.54436
9.85808 28134799 28134798 28134810 28134797 8.44947629437 -3.54696 8.77893 1.28028
9.99287 28134798 28134797 28134810 28134796 8.01217294887 -7.14636 9.47996 -1.45344
10.0313 28134797 28134796 28134810 28134795 7.59510714987 -27.0486 23.5938 -10.0268
10.0713 28134796 28134795 28134810 28134794 7.23627606617 -20.9131 10.123 -6.30474
10.5249 28134795 28134789 28134810 28134788 5.84661374788 -36.0625 12.8644 -16.6041
10.5752 28134789 28134788 28134810 28134787 5.52976580795 -17.2346 11.8056 -1.38791
9.05811 28134857 28134856 28134863 28134855 7.59510714987 -3.09257 4.76395 3.20623
9.15502 28134883 28134882 28134891 28134881 7.23627606617 27.6639 10.1819 -20.4991
9.0666 28134908 28134907 28134914 28134906 7.59510714987 -3.31692 -9.6392 -16.1561
9.07766 28134907 28134905 28134914 28134904 7.00541704554 2.03509 -5.50068 -12.0917
9.11179 28134905 28134900 28134914 28134899 5.52976580795 6.01371 -8.27387 -8.23553
9.06378 28134988 28134987 28134996 28134986 8.01217294887 6.06891 4.16548 -6.02896
9.09637 28134987 28134986 28134996 28134985 7.59510714987 7.00552 4.36676 -6.79541
11.2171 28134986 28134975 28134996 28134720 4.42803373661 -202.503 -257.143 49.628
9.10671 28135068 28135067 28135073 28135066 9.00233985416 -8.56764 13.3602 -0.837685
9.11431 28135067 28135066 28135073 28135065 8.9079991856 -1.62768 8.80964 -7.11318
9.36763 28135066 28135065 28135073 28135064 8.44947629437 -3.23096 16.5373 -13.953
9.45833 28135065 28135064 28135073 28135063 8.01217294887 0.625671 14.8797 -12.8582
9.5566 28135064 28135062 28135073 28135061 7.23627606617 -12.641 18.8848 -2.83421
9.61346 28135062 28135061 28135073 28135060 7.00541704554 -9.62023 26.1428 -0.429533
9.7455 28135061 28135060 28135073 28135059 6.85511726265 -4.49926 22.0831 -5.81554
9.81578 28135060 28135059 28135073 28135058 6.49159774567 -8.77426 24.821 -9.34297
9.92857 28135059 28135058 28135073 28135057 6.14490120342 -8.08411 32.0582 -8.0295
9.06939 28135100 28135099 28135111 28135098 7.59510714987 3.24203 0.472968 -2.06416
9.05524 28135323 28135322 28135325 28135321 12.6747021048 -5.23526 3.46244 3.52594
9.11179 28135322 28135321 28135325 28135320 12.0418635439 -4.09308 2.94739 3.82087
9.30278 28135321 28135320 28135325 28135319 11.4973879548 -2.84501 2.25065 2.45313
9.42281 28135320 28135319 28135325 28135318 10.9190331982 -5.42645 0.288087 1.92426
9.58891 28135319 28135318 28135325 28135317 10.3674435724 -8.379 0.9104 4.09738
9.68312 28135318 28135317 28135325 28135316 9.99659046619 -4.73083 4.80291 1.1862
9.70428 28135317 28135316 28135325 28135315 9.84138043947 -0.652739 9.04532 0.631202
9.95653 28135316 28135315 28135325 28135314 9.38877127194 -22.274 -6.51803 -3.13133
10.068 28135315 28135314 28135325 28135313 9.00233985416 -19.8065 -8.61693 -0.85495
10.1034 28135314 28135313 28135325 28135312 8.9079991856 -20.6894 -8.58004 -4.10362
10.249 28135313 28135312 28135325 28135311 8.44947629437 3.09612 -7.76647 -6.37634
10.3437 28135312 28135311 28135325 28135310 8.01217294887 11.5056 -21.5784 8.58311
10.3949 28135311 28135310 28135325 28135309 7.59510714987 2.05201 -37.8001 14.8298
10.4314 28135310 28135309 28135325 28135308 7.23627606617 3.45702 -40.1275 12.3643
10.4584 28135309 28135308 28135325 28135307 7.00541704554 2.63504 -45.3515 9.85236
10.4745 28135308 28135307 28135325 28135306 6.85511726265 4.49974 -47.0291 13.039
10.5159 28135307 28135306 28135325 28135305 6.49159774567 6.21463 -49.6827 11.9043
10.55 28135306 28135305 28135325 28135304 6.14490120342 5.22571 -48.9325 5.88117
10.6664 28135305 28135304 28135325 28135303 6.01075739884 -85.7495 -84.5866 -10.6854
10.6997 28135304 28135303 28135325 28135302 5.84661374788 -78.1931 -58.7143 -21.1225
10.8141 28135303 28135302 28135325 28135301 5.52976580795 4.8775 6.69277 29.3125
10.8835 28135302 28135301 28135325 28135300 5.22758097313 -20.9065 -23.1921 12.5626
11.2958 28135301 28135296 28135325 28135295 4.17683491473 -155.514 -201.882 50.0475
9.11179 28135344 28135343 28135347 28135342 10.3674435724 2.27127 -1.83978 11.1868
9.13154 28135364 28135363 28135365 28135362 11.4973879548 0.554666 3.26158 5.895
9.25284 28135363 28135361 28135365 28135360 10.3674435724 3.75217 4.8597 -8.92509
9.40389 28135361 28135360 28135365 28135359 9.99659046619 -8.17001 22.3666 3.63302
9.01298 28135378 28135377 28135380 28135376 10.3674435724 -1.40937 -5.50378 7.7273
9.09898 28135377 28135376 28135380 28135375 9.99659046619 -5.11685 -0.435335 4.50772
9.00012 28135480 28135479 28135489 28135478 6.01075739884 0.773476 5.33752 -0.0788627
9.02548 28135479 28135478 28135489 28135477 5.84661374788 0.920851 7.71465 0.0881681
9.11179 28135583 28135582 28135592 28135581 5.84661374788 3.94033 -35.4134 -1.2369
9.13634 28135582 28135581 28135592 28135580 5.52976580795 1.84895 -34.9757 -4.29154
9.21272 28135581 28135580 28135592 28135579 5.22758097313 3.86735 -31.1895 2.12576
9.23799 28135580 28135579 28135592 28135578 4.99593346816 2.33717 -30.678 2.20655
9.03763 28135652 28135651 28135654 28135650 7.23627606617 -5.95662 -10.6875 1.5309
9.10157 28135651 28135650 28135654 28135649 7.00541704554 -0.0953083 -12.3455 1.5519
9.16182 28135650 28135649 28135654 28135648 6.85511726265 -0.684567 -8.10479 -2.04014
9.20668 28135649 28135648 28135654 28135647 6.49159774567 -2.01307 -6.91388 -1.10623
9.24362 28135648 28135647 28135654 28135646 6.14490120342 0.430239 -7.49838 -1.62112
9.33415 28135647 28135646 28135654 28135645 6.01075739884 5.80377 -9.09056 1.77414
9.34461 28135646 28135645 28135654 28135644 5.84661374788 2.64903 -11.0545 0.843081
9.35914 28135645 28135644 28135654 28135643 5.52976580795 -1.29439 -6.80423 2.79483
9.37181 28135644 28135643 28135654 28135642 5.22758097313 1.55519 -7.97153 5.53571
9.39081 28135643 28135642 28135654 28135641 4.99593346816 -0.898867 -7.28248 11.5293
9.01298 28135675 28135674 28135685 28135673 7.00541704554 -4.3386 6.00543 7.87328
9.04358 28135674 28135673 28135685 28135672 6.85511726265 -3.10677 3.42302 7.04412
9.06378 28135673 28135672 28135685 28135671 6.49159774567 -5.03268 3.61843 7.58412
9.10415 28135672 28135671 28135685 28135670 6.14490120342 -4.49458 2.96522 3.75067
9.17512 28135671 28135669 28135685 28135668 5.84661374788 -6.92308 5.31311 3.61292
9.03463 28135823 28135822 28135829 28135821 9.99659046619 1.85612 -0.200851 0.169919
9.04653 28135822 28135821 28135829 28135820 9.84138043947 1.37353 0.317498 0.0519111
9.08845 28135821 28135820 28135829 28135819 9.38877127194 0.745434 -1.36176 1.41956
9.13394 28135820 28135819 28135829 28135818 9.00233985416 -0.809577 -1.79496 1.86716
9.21671 28135819 28135817 28135829 28135816 8.44947629437 -0.71359 -3.43044 0.467142
9.2929 28135817 28135816 28135829 28135815 8.01217294887 -2.91961 -2.8404 -3.42061
9.37869 28135816 28135815 28135829 28135814 7.59510714987 -5.3565 1.07965 -11.7234
9.44447 28135815 28135814 28135829 28135813 7.23627606617 -4.25512 -5.34049 -8.00553
9.47941 28135814 28135813 28135829 28135812 7.00541704554 -3.03156 -2.82423 -5.70242
9.50465 28135813 28135812 28135829 28135811 6.85511726265 -4.01787 -1.40939 -7.01344
9.59227 28135812 28135811 28135829 28135810 6.49159774567 -7.06265 -3.66572 -17.3084
9.65005 28135811 28135810 28135829 28135809 6.14490120342 -12.7776 -6.36426 -18.3962
9.67767 28135810 28135809 28135829 28135808 6.01075739884 -10.5451 -5.12349 -19.9323
9.67904 28135809 28135808 28135829 28135807 5.84661374788 -10.6802 -6.07485 -15.9222
9.71068 28135808 28135807 28135829 28135806 5.52976580795 -14.0326 -10.4617 -18.6616
9.83002 28135807 28135806 28135829 28135805 5.22758097313 -6.97339 -18.7614 4.05023
9.90075 28135806 28135805 28135829 28135804 4.99593346816 -40.6491 4.19244 14.037
10.0646 28135805 28135802 28135829 28135801 4.42803373661 -54.3981 37.8924 36.234
10.1186 28135802 28135801 28135829 28135800 4.17683491473 -42.18 38.0653 41.472
10.1652 28135801 28135800 28135829 28135799 4.00794511147 -37.2348 50.2298 54.8326
9.14108 28135865 28135864 28135871 28135863 7.23627606617 -8.16834 -1.09375 -1.57707
9.25648 28135864 28135861 28135871 28135860 6.49159774567 10.6496 17.1642 1.41881
9.43377 28135861 28135860 28135871 28135859 6.14490120342 8.52293 20.9505 3.95671
9.46621 28135860 28135858 28135871 28135857 5.84661374788 9.5125 21.2389 3.98766
9.59642 28135858 28135857 28135871 28135856 5.52976580795 12.0492 21.6755 11.7186
9.94815 28135857 28135853 28135871 28135852 4.66451770247 -38.6123 52.5656 6.64558
9.3156 28135880 28135879 28135885 28135858 6.01075739884 11.4471 20.6207 1.17412
9.00337 28135902 28135901 28135914 28135900 4.99593346816 0.195187 -2.92834 -4.77596
9.01928 28135901 28135900 28135914 28135899 4.93938066349 -4.30149 -1.94584 2.05358
9.00012 28136096 28136095 28136109 28136094 3.93726108473 -4.64338 -1.68829 -13.0631
9.07216 28136201 28136200 28136214 28136199 4.66451770247 -1.997 -5.34334 -4.66648
9.08309 28136200 28136197 28136214 28136196 4.00794511147 -5.52735 -4.4231 -7.18993
9.09375 28136197 28136196 28136214 28136195 3.93726108473 -8.63549 -4.78434 -4.18299
9.02239 28136224 28136223 28136241 28136222 3.49086136926 6.5993 -3.87877 -4.18148
9.12668 28136223 28136221 28136241 28136220 3.08482263583 28.3363 7.60594 -14.5486
9.06939 28136286 28136285 28136291 28136284 6.49159774567 5.89588 -1.57586 -6.46794
9.13154 28136285 28136284 28136291 28136283 6.14490120342 7.92898 -1.06824 -3.60325
9.14344 28136284 28136282 28136291 28136281 5.84661374788 10.2347 -0.689124 -13.5163
9.19013 28136282 28136281 28136291 28136280 5.52976580795 8.73437 -4.38042 -10.0305
9.25284 28136281 28136280 28136291 28136279 5.22758097313 8.74663 -6.93687 -8.46223
9.29787 28136280 28136277 28136291 28136276 4.66451770247 7.41376 -3.98001 -5.30004
9.31083 28136277 28136276 28136291 28136275 4.42803373661 6.2037 -5.24076 -7.47485
9.35048 28136276 28136275 28136291 28136274 4.17683491473 5.8369 -2.42332 -6.40015
9.35483 28136275 28136274 28136291 28136273 4.00794511147 7.56068 -2.15054 -5.44272
9.3634 28136274 28136273 28136291 28136272 3.93726108473 9.5645 -1.90588 -4.6928
9.11179 28136350 28136349 28136355 28136348 10.3674435724 1.14841 -0.804963 -11.9388
9.13394 28136349 28136348 28136355 28136347 9.99659046619 4.01421 -0.35681 -4.28741
9.22066 28136348 28136346 28136355 28136345 9.38877127194 8.35735 -1.77967 -0.32792
9.30923 28136346 28136342 28136355 28136341 8.01217294887 3.55754 -1.72211 -2.39192
9.31243 28136342 28136341 28136355 28136340 7.59510714987 3.81264 -1.03402 -0.0683156
9.32342 28136341 28136340 28136355 28136339 7.23627606617 3.59078 -1.89286 2.90497
9.36056 28136340 28136338 28136355 28136337 6.85511726265 3.54833 -4.61781 6.13278
9.36622 28136338 28136337 28136355 28136336 6.49159774567 2.45188 -5.96388 5.38055
9.49326 28136337 28136336 28136355 28136335 6.14490120342 -14.5569 -0.321504 17.288
9.51972 28136336 28136332 28136355 28136331 5.22758097313 -4.12801 -2.36905 12.6852
9.12424 28136414 28136413 28136419 28136412 6.49159774567 -0.986793 1.06456 -0.719537
9.19848 28136413 28136412 28136419 28136411 6.14490120342 -7.34133 2.52746 -8.11469
