logMh | fpID | subhaloID | main leaf ID | descID |  z
9.09898 10312917 10312916 10312922 10312915 10.9190331982 6.07995 -15.0541 0.10824
9.19848 10312916 10312915 10312922 10312914 10.3674435724 4.78683 -11.0594 1.98394
9.30602 10312915 10312914 10312922 10312913 9.99659046619 7.05871 -8.4662 1.61139
9.43856 10312914 10312912 10312922 10312911 9.38877127194 5.91977 -19.5775 -3.43833
9.63138 10312912 10312911 10312922 10312910 9.00233985416 10.1649 -15.8688 3.72608
9.7342 10312911 10312910 10312922 10312909 8.9079991856 4.95076 -20.198 6.55496
9.95581 10312910 10312909 10312922 10312908 8.44947629437 -5.28612 1.29032 14.4855
10.2093 10312909 10312908 10312922 10312907 8.01217294887 -21.5252 13.344 -3.42292
10.4066 10312908 10312907 10312922 10312906 7.59510714987 -11.064 -31.7503 -21.0449
10.5189 10312907 10312906 10312922 10312905 7.23627606617 14.1737 -65.3021 -37.7007
10.5701 10312906 10312905 10312922 10312904 7.00541704554 1.98674 -39.6266 -47.3443
10.6013 10312905 10312904 10312922 10312903 6.85511726265 -2.00723 -60.9925 -37.9876
10.8762 10312904 10312903 10312922 10312902 6.49159774567 -60.6328 -157.325 -54.7576
11.0311 10312903 10312902 10312922 10312901 6.14490120342 -64.1977 -228.839 -94.3664
11.0571 10312902 10312901 10312922 10312900 6.01075739884 -65.0171 -239.264 -76.1494
11.2142 10312901 10312900 10312922 10312899 5.84661374788 -86.5843 -276.402 16.4482
11.3159 10312900 10312899 10312922 10312898 5.52976580795 -112.226 -224.136 217.294
11.4361 10312899 10312898 10312922 10312897 5.22758097313 -248.738 2.81928 462.326
11.4782 10312898 10312895 10312922 10312894 4.66451770247 -74.3124 -20.8601 68.3332
11.5258 10312895 10312894 10312922 10312893 4.42803373661 21.1831 -184.642 -290.693
11.786 10312894 10312892 10312922 10312891 4.00794511147 224.312 -105.268 -539.832
11.8654 10312892 10312891 10312922 10312890 3.93726108473 218.676 -17.5482 -533.694
12.024 10312891 10312890 10312922 10312889 3.70877426464 206.064 -109.035 -473.264
12.4569 10312890 10312888 10312922 10312887 3.28303305796 431.428 -554.399 -79.0086
12.5854 10312888 10312887 10312922 10312886 3.08482263583 205.272 -558.332 132.969
12.623 10312887 10312886 10312922 10312885 3.00813107163 162.993 -592.422 130.685
12.6619 10312886 10312885 10312922 10312884 2.89578500573 -223.703 -488.129 121.962
12.7268 10312885 10312884 10312922 10312883 2.73314261732 -63.9985 -631.07 -132.853
12.7784 10312884 10312883 10312922 10312882 2.5772902716 -169.792 -411.71 -35.1469
12.7814 10312883 10312882 10312922 10312881 2.44422570455 204.665 -432.435 -201.367
12.7885 10312882 10312881 10312922 10312880 2.31611074396 0.416988 -378.444 -252.292
12.8253 10312881 10312880 10312922 10312879 2.20792547238 -274.69 -672.975 -52.1917
12.8384 10312880 10312879 10312922 10312878 2.1032696526 -287.907 -878.767 -550.448
12.8584 10312879 10312878 10312922 10312877 2.00202813925 -569.454 -1199.0 -296.231
12.865 10312878 10312877 10312922 10312876 1.90408954353 -527.439 -1379.6 -807.727
12.8797 10312877 10312876 10312922 10312875 1.82268925262 -649.972 -1299.57 -951.645
12.8845 10312876 10312875 10312922 10312874 1.74357057433 -896.187 -1308.04 -977.289
12.9034 10312875 10312874 10312922 10312873 1.66666955611 -975.872 -1205.1 -678.974
12.9342 10312874 10312873 10312922 10312872 1.60423452207 -1045.71 -1503.39 -358.326
12.9584 10312873 10312872 10312922 10312871 1.53123902916 -1612.34 -2463.37 -1082.04
12.9879 10312872 10312871 10312922 10312870 1.47197484527 -2258.61 -3537.49 -1840.17
13.0183 10312871 10312870 10312922 10312869 1.41409822037 -1564.62 -3334.12 -2211.19
13.0462 10312870 10312869 10312922 10312868 1.3575766674 -1310.16 -3324.04 -2269.05
13.0634 10312869 10312868 10312922 10312867 1.30237845991 -1348.28 -4136.1 -2660.06
13.0832 10312868 10312867 10312922 10312866 1.24847261425 -1796.6 -4466.07 -2662.57
13.1035 10312867 10312866 10312922 10312865 1.20625808078 -1584.62 -5171.39 -2857.45
13.1307 10312866 10312865 10312922 10312864 1.15460271236 -1591.04 -6370.13 -3819.05
13.1394 10312865 10312864 10312922 10312863 1.11415056377 -688.512 -6841.19 -3768.77
13.1584 10312864 10312863 10312922 10312862 1.07445789455 -683.458 -6540.2 -3813.68
13.1751 10312863 10312862 10312922 10312861 1.03551044566 -618.282 -6874.11 -4083.69
13.1958 10312862 10312861 10312922 10312860 0.997294225782 -540.809 -6334.86 -4043.21
13.1973 10312861 10312860 10312922 10312859 0.987852810816 -248.096 -6289.81 -4056.02
13.2063 10312860 10312859 10312922 10312858 0.950531351585 -405.034 -6000.4 -4321.3
13.2154 10312859 10312858 10312922 10312857 0.923000816178 -175.153 -5600.66 -3830.77
13.2242 10312858 10312857 10312922 10312856 0.886896937575 180.528 -5655.85 -3658.8
13.2349 10312857 10312856 10312922 10312855 0.851470900625 430.893 -5779.23 -3926.58
13.2439 10312856 10312855 10312922 10312854 0.816709979012 587.254 -5275.42 -3870.43
13.2525 10312855 10312854 10312922 10312853 0.791068248946 452.773 -4974.4 -3805.33
13.2539 10312854 10312852 10312922 10312851 0.732636182022 -274.937 -3844.62 -3644.92
13.2546 10312852 10312851 10312922 10312850 0.700106353719 -400.796 -4013.63 -3762.34
13.2555 10312851 10312848 10312922 10312847 0.621428745243 -263.74 -4608.94 -3666.39
13.2597 10312848 10312847 10312922 10312846 0.598543288188 -320.333 -4723.17 -3417.91
13.2616 10312847 10312846 10312922 10312845 0.575980845108 -725.535 -4874.71 -3456.41
13.2651 10312846 10312845 10312922 10312844 0.546392183141 -1087.17 -4978.53 -3330.83
13.2713 10312845 10312843 10312922 10312842 0.503047523245 -2240.29 -5615.24 -3716.99
13.2805 10312843 10312841 10312922 10312840 0.460917794181 -2902.11 -5853.07 -3910.74
13.2861 10312841 10312840 10312922 10312839 0.440297849248 -3050.81 -5890.64 -4089.47
13.2894 10312840 10312839 10312922 10312838 0.419968941997 -3056.76 -5896.88 -4135.46
13.2927 10312839 10312838 10312922 10312837 0.399926964614 -2930.56 -6175.85 -3987.16
13.2969 10312838 10312837 10312922 10312836 0.38016786726 -3024.94 -6415.52 -3710.8
13.3023 10312837 10312836 10312922 10312835 0.360687657262 -3047.34 -6604.22 -3483.44
13.3035 10312836 10312835 10312922 10312834 0.347853841858 -2638.51 -6651.95 -3358.6
13.3096 10312835 10312834 10312922 10312833 0.328829724206 -2513.08 -6627.96 -3113.45
13.3145 10312834 10312833 10312922 10312832 0.310074120128 -2100.24 -6823.78 -2690.09
13.3209 10312833 10312832 10312922 10312831 0.291583239722 -1757.02 -6895.75 -2376.98
13.3276 10312832 10312831 10312922 10312830 0.273353346578 -1163.66 -6785.83 -2121.75
13.3316 10312831 10312830 10312922 10312829 0.261343256161 -498.883 -6619.91 -1930.76
13.337 10312830 10312829 10312922 10312828 0.243540181555 -376.645 -6624.51 -1712.78
13.3448 10312829 10312828 10312922 10312827 0.22598838626 228.536 -6563.7 -1241.43
13.349 10312828 10312827 10312922 10312826 0.214425035514 658.988 -6474.97 -733.983
13.3565 10312827 10312826 10312922 10312825 0.197284182376 884.639 -6685.5 -469.883
13.3632 10312826 10312825 10312922 10312824 0.180385261706 1024.41 -6794.46 -47.4351
13.3655 10312825 10312824 10312922 10312823 0.169252033244 713.135 -6576.87 66.9364
13.3746 10312824 10312823 10312922 10312822 0.152748768902 535.129 -6922.39 128.104
13.3784 10312823 10312822 10312922 10312821 0.14187620397 372.703 -7107.85 169.032
13.3819 10312822 10312821 10312922 10312820 0.125759332411 458.74 -7056.51 172.554
13.3891 10312821 10312820 10312922 10312819 0.109869940459 782.968 -7381.2 330.93
13.3927 10312820 10312819 10312922 10312818 0.0994018026302 988.624 -7463.38 491.976
13.3967 10312819 10312818 10312922 10312817 0.0838844307975 1077.18 -7535.77 417.685
13.3993 10312818 10312817 10312922 10312816 0.0736613846564 1360.61 -7658.07 309.985
13.4117 10312817 10312816 10312922 10312815 0.0585073227945 1107.98 -7876.09 122.525
13.4187 10312816 10312815 10312922 10312814 0.0485236299818 1094.82 -7849.02 -20.8384
13.4256 10312815 10312814 10312922 10312813 0.0337243718735 1316.37 -7649.53 151.956
13.4291 10312814 10312813 10312922 10312812 0.0239744283828 1650.49 -7481.52 -84.1567
13.4371 10312813 10312812 10312922 10312811 0.00952166696794 2067.11 -7174.61 208.188
13.4418 10312812 10312811 10312922 -1 2.22044604925e-16 2742.89 -7078.47 799.65
9.02548 10312944 10312943 10312948 10312942 10.9190331982 0.457795 1.74059 1.43405
9.19223 10312943 10312942 10312948 10312941 10.3674435724 0.897489 -0.65421 1.10194
9.40902 10312942 10312941 10312948 10312940 9.99659046619 -8.97523 2.82938 5.43654
9.41282 10312941 10312940 10312948 10312939 9.84138043947 -11.9592 4.54708 6.67893
9.01928 10312971 10312970 10312971 10312969 12.0418635439 -0.397743 7.1522 8.09181
9.32342 10312970 10312969 10312971 10312968 11.4973879548 5.64375 9.05024 4.88995
9.43856 10312969 10312968 10312971 10312967 10.9190331982 4.51143 5.78847 3.18864
9.50055 10312968 10312967 10312971 10312966 10.3674435724 3.94567 3.10511 -8.12442
9.00337 10312975 10312974 10312976 10312973 9.38877127194 -6.79192 -5.3731 -4.21221
9.01614 10313020 10313019 10313024 10313018 9.99659046619 1.37939 -0.771641 0.358026
9.07766 10313019 10313018 10313024 10313017 9.84138043947 3.74685 -0.404227 -0.331911
9.11179 10313018 10313017 10313024 10313016 9.38877127194 2.87923 -2.47952 -0.592834
9.18376 10313017 10313016 10313024 10313015 9.00233985416 3.09873 -0.471666 -4.2054
9.18376 10313016 10313015 10313024 10313014 8.9079991856 3.1292 -1.24 -3.85139
9.35771 10313015 10313014 10313024 10313013 8.44947629437 -3.19604 0.502141 5.93505
9.44681 10313014 10313013 10313024 10313012 8.01217294887 3.81491 -8.39885 1.81713
9.51375 10313013 10313012 10313024 10313011 7.59510714987 2.75954 -2.90327 1.31123
9.54928 10313012 10313009 10313024 10312903 6.85511726265 -0.974819 -6.77912 -1.77693
9.0066 10313034 10313033 10313040 10313032 8.01217294887 2.0793 -1.07178 0.938492
9.0666 10313033 10313032 10313040 10313031 7.59510714987 1.15725 -1.4991 1.85912
9.07216 10313032 10313030 10313040 10313029 7.00541704554 -0.919451 -0.955646 12.7938
9.22457 10313081 10313080 10313087 10313079 8.44947629437 -2.34438 -6.63444 1.75286
9.58213 10313080 10313079 10313087 10313078 8.01217294887 23.2184 17.7157 9.66574
9.19433 10313102 10313101 10313109 10313100 9.00233985416 -0.355788 5.95157 6.66932
9.24362 10313116 10313115 10313125 10313114 8.01217294887 0.411576 7.40077 10.9368
9.01614 10313490 10313489 10313497 10313488 7.23627606617 2.89803 -12.7884 -1.91511
9.01928 10313489 10313487 10313497 10313486 6.85511726265 6.49652 -14.6274 -4.00556
9.24362 10313487 10313486 10313497 10313485 6.49159774567 0.652459 -8.45257 -15.0317
9.10415 10313527 10313526 10313531 10313525 12.0418635439 3.30364 5.47143 -0.955268
9.23988 10313526 10313525 10313531 10313524 11.4973879548 3.17061 -4.44971 1.75333
9.27246 10313525 10313524 10313531 10313523 10.9190331982 -0.392617 -1.59286 -1.4932
9.37595 10313524 10313523 10313531 10313522 10.3674435724 -0.877568 -7.18126 -2.17514
9.43136 10313523 10313522 10313531 10313521 9.99659046619 -2.37092 -5.19996 -3.98163
9.4606 10313522 10313521 10313531 10313520 9.84138043947 -2.98818 -4.54794 -4.0868
9.58383 10313521 10313520 10313531 10313519 9.38877127194 -2.61498 -2.45696 -4.52844
9.71259 10313520 10313519 10313531 10313518 9.00233985416 -8.88309 4.42624 -21.8112
9.90157 10313519 10313517 10313531 10313516 8.44947629437 -9.77815 10.3259 -24.4717
10.0063 10313517 10313516 10313531 10313515 8.01217294887 -7.06474 21.5029 -29.3069
10.0592 10313516 10313515 10313531 10313514 7.59510714987 -6.07427 23.3768 -27.0282
10.0898 10313515 10313514 10313531 10313513 7.23627606617 -7.67771 24.7639 -31.5384
10.1493 10313514 10313513 10313531 10313512 7.00541704554 -16.7499 34.6399 -39.0561
10.1698 10313513 10313512 10313531 10313511 6.85511726265 -3.77417 19.374 -14.8704
9.07492 10313565 10313564 10313569 10313563 11.4973879548 -1.2557 1.04109 -5.59003
9.17729 10313564 10313563 10313569 10313562 10.9190331982 2.31781 2.61394 -10.7367
9.35771 10313563 10313562 10313569 10313561 10.3674435724 3.78373 5.30795 -4.0274
9.42893 10313562 10313560 10313569 10313559 9.84138043947 8.69797 12.867 0.58692
9.44447 10313560 10313557 10313569 10313556 8.9079991856 3.39711 3.9647 7.34468
9.2672 10313593 10313592 10313596 10313591 10.3674435724 4.0132 11.0363 4.23325
9.29951 10313592 10313591 10313596 10313590 9.99659046619 4.75511 8.9656 2.0335
9.40774 10313591 10313590 10313596 10313589 9.84138043947 1.93392 11.951 8.85374
9.49744 10313590 10313589 10313596 10313588 9.38877127194 1.74429 6.93514 8.48478
9.57436 10313589 10313588 10313596 10313587 9.00233985416 -0.136602 7.01256 9.93126
9.72568 10313588 10313586 10313596 10313585 8.44947629437 1.43263 10.8931 11.5823
9.94925 10313586 10313584 10313596 10313583 7.59510714987 3.8347 2.03808 1.14102
10.0741 10313584 10313583 10313596 10313582 7.23627606617 9.91259 1.50953 2.45729
9.79639 10313601 10313600 10313609 10313584 8.01217294887 0.374284 16.4912 17.8323
9.08038 10313662 10313661 10313668 10313660 9.84138043947 -1.82597 1.96805 -4.21813
9.08578 10313661 10313660 10313668 10313659 9.38877127194 -3.83232 1.57496 -3.32521
9.11681 10313660 10313659 10313668 10313658 9.00233985416 -4.9974 1.81158 -2.56335
9.13394 10313659 10313658 10313668 10313657 8.9079991856 -4.75706 1.86307 -3.20353
9.17512 10313658 10313657 10313668 10313656 8.44947629437 -3.02232 -0.043541 -4.84084
9.2742 10313657 10313656 10313668 10313655 8.01217294887 -8.13482 1.91104 -4.35972
9.32031 10313656 10313655 10313668 10313654 7.59510714987 -7.63851 2.02226 -4.03213
9.42649 10313655 10313654 10313668 10313653 7.23627606617 -11.2809 1.41128 -8.47056
9.48479 10313654 10313653 10313668 10313652 7.00541704554 -7.70731 3.39077 -9.5594
9.50669 10313653 10313651 10313668 10313650 6.49159774567 -4.43016 4.77868 -5.68122
9.0066 10313683 10313682 10313691 10313681 7.23627606617 -1.34817 -5.297 -2.76634
9.55931 10313866 10313865 10313875 10313864 7.00541704554 15.4416 7.04152 11.5126
9.56021 10313865 10313863 10313875 10313862 6.49159774567 17.0079 5.50532 12.3899
9.62134 10313863 10313862 10313875 10313861 6.14490120342 14.6043 3.59214 18.4228
9.08845 10313892 10313891 10313896 10313890 8.44947629437 6.67 -3.85576 -9.07591
9.11681 10313891 10313890 10313896 10313889 8.01217294887 5.84648 -6.56829 -6.80919
9.22651 10313890 10313889 10313896 10313888 7.59510714987 7.4066 -2.23544 -4.0849
9.43377 10313889 10313888 10313896 10313887 7.23627606617 5.85317 6.6962 9.15806
9.00337 10313919 10313918 10313927 10313917 8.44947629437 -3.31828 -3.21282 -1.77477
9.08309 10313918 10313917 10313927 10313916 8.01217294887 0.66067 -0.722537 -2.19925
9.12178 10313917 10313916 10313927 10313915 7.59510714987 3.59707 -1.97753 -0.764345
9.17729 10313916 10313914 10313927 10313913 7.00541704554 -2.68604 -0.481704 1.28927
9.19013 10313914 10313913 10313927 10313912 6.85511726265 -0.541701 -2.18144 1.72117
9.19848 10313913 10313912 10313927 10313911 6.49159774567 -0.629118 -4.13767 0.413976
9.20055 10313912 10313911 10313927 10313910 6.14490120342 -5.46235 -4.44897 1.71344
9.23229 10313911 10313910 10313927 10313909 6.01075739884 -5.08596 -5.04591 0.73954
9.0666 10313946 10313945 10313948 10313944 8.01217294887 1.84684 -1.96588 -6.33529
9.12668 10313945 10313944 10313948 10313943 7.59510714987 1.83162 0.41403 -3.86342
9.14811 10313944 10313943 10313948 10313942 7.23627606617 0.149756 1.89737 -4.90668
9.15502 10313943 10313942 10313948 10313941 7.00541704554 1.22798 1.65291 -4.58128
9.1573 10313942 10313940 10313948 10313939 6.49159774567 -0.968533 1.55774 -3.47019
9.17512 10313940 10313939 10313948 10313938 6.14490120342 0.981821 1.3582 -4.09757
9.22651 10313939 10313937 10313948 10313936 5.84661374788 -6.92482 7.41547 -5.74482
9.0066 10314034 10314033 10314039 10314032 8.01217294887 -7.94853 -9.72332 2.34703
9.14344 10314033 10314032 10314039 10314031 7.59510714987 -8.00482 -10.941 4.18743
9.1573 10314032 10314028 10314039 10314027 6.49159774567 -9.42304 -2.70811 8.82436
9.13394 10314095 10314094 10314097 10314093 10.9190331982 -1.97106 -2.22924 1.77515
9.15273 10314094 10314093 10314097 10314092 10.3674435724 -4.01 -6.97222 -0.176554
9.25101 10314093 10314092 10314097 10314091 9.99659046619 -0.694016 -0.127784 -0.216491
9.26365 10314092 10314091 10314097 10314090 9.84138043947 0.257894 -2.58625 -1.28801
9.29787 10314091 10314090 10314097 10314089 9.38877127194 -0.825312 -2.29201 0.129462
9.33263 10314090 10314089 10314097 10314088 9.00233985416 -0.25458 -4.48622 0.280071
9.40131 10314089 10314087 10314097 10314086 8.44947629437 2.47061 -5.31257 -1.34918
9.5207 10314087 10314086 10314097 10314085 8.01217294887 8.86215 -8.81343 -0.963957
9.56379 10314086 10314085 10314097 10314084 7.59510714987 5.99619 -11.7391 1.84788
9.6623 10314085 10314084 10314097 10314083 7.23627606617 7.22539 -9.86142 11.4015
9.67904 10314084 10314083 10314097 10314082 7.00541704554 3.04752 -7.49976 15.1041
9.73899 10314083 10314082 10314097 10314081 6.85511726265 12.3857 -1.2111 27.7026
9.79691 10314082 10314081 10314097 10314080 6.49159774567 8.86798 0.958528 21.3253
9.05524 10314144 10314143 10314146 10314142 10.3674435724 -5.67507 0.564748 -1.09603
9.06939 10314143 10314142 10314146 10314141 9.99659046619 -5.52602 0.48859 -1.85364
9.17512 10314142 10314140 10314146 10314139 9.38877127194 -4.02198 -2.00804 -2.43213
9.30115 10314140 10314139 10314146 10314138 9.00233985416 -6.08786 -3.62832 0.415623
9.31083 10314139 10314138 10314146 10314137 8.9079991856 -5.58123 -3.63029 1.21279
9.34902 10314138 10314137 10314146 10314136 8.44947629437 -5.84657 -3.74807 1.26559
9.41909 10314137 10314136 10314146 10314135 8.01217294887 2.28808 2.42332 1.68385
9.55569 10314136 10314135 10314146 10314134 7.59510714987 -13.8273 -19.1701 -11.694
9.75593 10314135 10314134 10314146 10314133 7.23627606617 -21.6519 -32.1498 4.89883
9.89952 10314134 10314133 10314146 10314132 7.00541704554 1.0898 0.106413 6.87131
9.99088 10314133 10314132 10314146 10314131 6.85511726265 -24.1108 -30.1638 9.84777
9.13154 10314161 10314160 10314167 10314159 7.59510714987 -2.52877 -0.359618 2.50011
9.40774 10314160 10314159 10314167 10314132 7.23627606617 18.458 5.04005 1.49383
9.24362 10314177 10314176 10314180 10314175 8.44947629437 12.087 2.14286 8.37281
9.13154 10314242 10314241 10314245 10314240 10.3674435724 5.31303 -0.771826 5.88362
9.27246 10314241 10314240 10314245 10314239 9.99659046619 -1.01188 2.69426 3.76239
9.35048 10314240 10314239 10314245 10314238 9.84138043947 -1.66831 6.52397 3.16607
9.42157 10314239 10314238 10314245 10314237 9.38877127194 -5.23252 3.8574 -3.40332
9.44211 10314238 10314237 10314245 10314236 9.00233985416 -4.18418 5.05902 -1.22337
9.47066 10314237 10314236 10314245 10314235 8.9079991856 -2.3304 6.10807 1.47209
9.50055 10314236 10314235 10314245 10314234 8.44947629437 -1.82015 4.27682 0.711369
9.53902 10314235 10314234 10314245 10314233 8.01217294887 -2.93356 2.25045 -3.39705
9.56735 10314234 10314233 10314245 10314232 7.59510714987 -10.7884 6.69179 -4.85776
9.60136 10314233 10314232 10314245 10314231 7.23627606617 -5.79191 6.41081 1.32176
9.61584 10314232 10314231 10314245 10314230 7.00541704554 -6.3157 9.01714 3.01036
9.65078 10314231 10314229 10314245 10314228 6.49159774567 2.71441 18.3751 7.92534
9.66088 10314229 10314228 10314245 10314227 6.14490120342 10.5578 22.2202 12.3013
9.67422 10314228 10314226 10314245 10314225 5.84661374788 5.34002 17.786 13.064
9.2087 10314276 10314275 10314283 10314274 9.99659046619 -0.429011 9.27212 -8.94946
9.25828 10314275 10314274 10314283 10314273 9.84138043947 0.450397 9.23995 -10.8708
9.30278 10314274 10314272 10314283 10314271 9.00233985416 1.92207 7.55363 -7.22355
9.34902 10314272 10314271 10314283 10314270 8.9079991856 1.10887 5.38166 -6.74143
9.48586 10314271 10314270 10314283 10314269 8.44947629437 -5.01593 10.5675 -7.83186
9.59394 10314270 10314268 10314283 10314267 7.59510714987 -0.782893 1.82553 -6.33987
9.60218 10314268 10314266 10314283 10314265 7.00541704554 0.204443 -2.66845 -2.56956
9.64932 10314266 10314265 10314283 10314264 6.85511726265 4.08259 -9.3081 0.51073
9.65442 10314265 10314264 10314283 10314263 6.49159774567 3.42753 -11.8941 -0.643638
