logMh | fpID | subhaloID | main leaf ID | descID |  z
9.11431 3487038 3487037 3487042 3487036 14.7634960164 -0.48986 -2.7779 -1.52228
9.2026 3487037 3487036 3487042 3487035 14.0339921445 -0.13131 -4.4018 -3.14952
9.43856 3487036 3487035 3487042 3487034 13.3382482898 2.24902 12.6599 -5.02655
9.68244 3487035 3487034 3487042 3487033 12.6747021048 0.0376642 6.40306 -2.30701
9.88868 3487034 3487033 3487042 3487032 12.0418635439 5.67501 -4.04537 13.9563
10.0442 3487033 3487032 3487042 3487031 11.4973879548 14.6493 -15.3105 13.6211
10.1687 3487032 3487031 3487042 3487030 10.9190331982 6.20311 -18.2357 27.3413
10.388 3487031 3487030 3487042 3487029 10.3674435724 7.0292 0.878114 24.5261
10.4148 3487030 3487029 3487042 3487028 9.99659046619 -0.229558 -3.81046 23.6485
10.4755 3487029 3487028 3487042 3487027 9.84138043947 4.7002 -3.81367 28.661
10.5588 3487028 3487027 3487042 3487026 9.38877127194 -9.09626 4.10558 37.0682
10.743 3487027 3487026 3487042 3487025 9.00233985416 5.85486 -2.99631 56.8885
10.813 3487026 3487025 3487042 3487024 8.9079991856 -50.7414 -12.091 29.9285
11.0491 3487025 3487023 3487042 3487022 8.01217294887 32.4243 -78.7961 -277.265
11.2587 3487023 3487022 3487042 3487021 7.59510714987 -144.233 -103.255 -296.762
11.2701 3487022 3487021 3487042 3487020 7.23627606617 -29.3276 -7.79949 -95.805
11.359 3487021 3487020 3487042 3487019 7.00541704554 -95.871 -28.3454 -124.074
11.4263 3487020 3487019 3487042 3487018 6.85511726265 -58.0131 -81.5442 -133.302
11.5555 3487019 3487018 3487042 3487017 6.49159774567 -58.8084 -157.368 -178.544
11.6785 3487018 3487017 3487042 3487016 6.14490120342 -84.9876 -208.314 -133.154
11.7472 3487017 3487016 3487042 3487015 6.01075739884 -113.023 -124.621 -70.9336
11.8862 3487016 3487015 3487042 3487014 5.84661374788 -194.792 -249.508 -66.7252
12.0338 3487015 3487014 3487042 3487013 5.52976580795 -132.442 -107.17 -233.221
12.1219 3487014 3487013 3487042 3487012 5.22758097313 102.837 -148.731 -123.686
12.2176 3487013 3487012 3487042 3487011 4.99593346816 402.186 -176.32 15.4721
12.2276 3487012 3487011 3487042 3487010 4.93938066349 394.308 -171.975 0.0571172
12.2891 3487011 3487010 3487042 3487009 4.66451770247 286.718 -142.019 -13.2953
12.3252 3487010 3487009 3487042 3487008 4.42803373661 308.637 -116.86 13.9269
12.3683 3487009 3487008 3487042 3487007 4.17683491473 255.336 -87.8746 51.9354
12.396 3487008 3487007 3487042 3487006 4.00794511147 219.049 -111.525 14.8615
12.4027 3487007 3487006 3487042 3487005 3.93726108473 221.791 -137.543 -18.9974
12.4309 3487006 3487005 3487042 3487004 3.70877426464 216.152 -127.655 -239.597
12.4588 3487005 3487004 3487042 3487003 3.49086136926 62.2785 -146.328 -276.004
12.5036 3487004 3487003 3487042 3487002 3.28303305796 258.268 -210.23 -346.881
12.5485 3487003 3487002 3487042 3487001 3.08482263583 399.576 -311.603 -264.874
12.5699 3487002 3487001 3487042 3487000 3.00813107163 499.971 -327.617 -412.371
12.5996 3487001 3487000 3487042 3486999 2.89578500573 558.032 -345.33 -444.786
12.639 3487000 3486999 3487042 3486998 2.73314261732 794.431 -484.611 -550.473
12.6709 3486999 3486998 3487042 3486997 2.5772902716 1003.12 -655.88 -697.417
12.697 3486998 3486997 3487042 3486996 2.44422570455 1281.05 -803.348 -799.94
12.7256 3486997 3486996 3487042 3486995 2.31611074396 1511.4 -977.619 -659.088
12.7512 3486996 3486995 3487042 3486994 2.20792547238 1055.84 -741.67 -374.533
12.7768 3486995 3486994 3487042 3486993 2.1032696526 669.401 -797.315 -345.279
12.8046 3486994 3486993 3487042 3486992 2.00202813925 79.089 -174.886 59.4174
12.8276 3486993 3486992 3487042 3486991 1.90408954353 -369.685 53.36 259.143
12.8345 3486992 3486991 3487042 3486990 1.82268925262 -658.219 412.603 387.043
12.8461 3486991 3486990 3487042 3486989 1.74357057433 -894.901 515.961 673.243
12.8687 3486990 3486989 3487042 3486988 1.66666955611 -1471.08 675.21 671.09
12.9005 3486989 3486988 3487042 3486987 1.60423452207 -2146.7 764.431 386.796
12.9571 3486988 3486987 3487042 3486986 1.53123902916 -2954.34 1112.27 -575.088
12.9985 3486987 3486986 3487042 3486985 1.47197484527 -3654.97 1157.21 -1031.55
13.057 3486986 3486985 3487042 3486984 1.41409822037 -4463.25 1273.9 -443.648
13.1098 3486985 3486984 3487042 3486983 1.3575766674 -5652.3 1256.13 481.705
13.1922 3486984 3486983 3487042 3486982 1.30237845991 -5732.95 471.145 1570.46
13.2108 3486983 3486982 3487042 3486981 1.24847261425 -4855.61 -105.353 3269.84
13.2361 3486982 3486981 3487042 3486980 1.20625808078 -4956.23 -89.897 3586.67
13.2626 3486981 3486980 3487042 3486979 1.15460271236 -4115.19 -271.063 4195.68
13.2955 3486980 3486979 3487042 3486978 1.11415056377 -2663.89 32.5996 4964.28
13.3209 3486979 3486978 3487042 3486977 1.07445789455 -2252.32 -261.883 5204.38
13.3323 3486978 3486977 3487042 3486976 1.03551044566 -1829.69 -707.485 5572.33
13.3375 3486977 3486976 3487042 3486975 0.997294225782 -1717.65 -1103.86 5789.53
13.3401 3486976 3486975 3487042 3486974 0.987852810816 -1651.88 -1296.36 5765.23
13.3547 3486975 3486974 3487042 3486973 0.950531351585 -652.941 -2616.89 6480.01
13.3582 3486974 3486973 3487042 3486972 0.923000816178 -930.883 -2841.43 6439.94
13.361 3486973 3486970 3487042 3486969 0.816709979012 -717.554 -3136.4 4125.6
13.3675 3486970 3486969 3487042 3486968 0.791068248946 -1446.55 -2995.11 4773.26
13.378 3486969 3486968 3487042 3486967 0.757441372616 -1733.2 -3159.92 5021.27
13.3801 3486968 3486967 3487042 3486966 0.732636182022 -2053.82 -2917.03 4835.81
13.3844 3486967 3486966 3487042 3486965 0.700106353719 -2076.64 -2624.05 4942.47
13.3845 3486966 3486964 3487042 3486963 0.644641840685 -2861.79 -2258.73 4391.87
13.387 3486964 3486962 3487042 3486961 0.598543288188 -2740.89 -1933.89 4210.88
13.3911 3486962 3486961 3487042 3486960 0.575980845108 -2746.19 -1340.03 3984.42
13.399 3486961 3486960 3487042 3486959 0.546392183141 -3155.96 -1157.51 3975.15
13.4065 3486960 3486959 3487042 3486958 0.524565820434 -3422.98 -1007.99 4564.7
13.4171 3486959 3486958 3487042 3486957 0.503047523245 -4573.73 -2773.5 4296.39
13.4218 3486958 3486956 3487042 3486955 0.460917794181 -3795.1 -1487.58 5194.13
13.4266 3486956 3486955 3487042 3486954 0.440297849248 -3608.44 -1716.17 5265.48
13.4287 3486955 3486954 3487042 3486953 0.419968941997 -3648.61 -1627.96 5300.78
13.4368 3486954 3486952 3487042 3486951 0.38016786726 -4361.89 -2377.28 4692.93
13.4395 3486952 3486951 3487042 3486950 0.360687657262 -3492.08 -1257.33 4786.74
13.4487 3486951 3486950 3487042 3486949 0.347853841858 -5323.57 -2574.53 4563.88
13.5805 3486950 3486937 3487042 3486936 0.14187620397 -11484.7 -5343.03 7406.37
13.5824 3486937 3486936 3487042 3486935 0.125759332411 -10320.1 -5826.49 4810.21
13.5854 3486936 3486934 3487042 3486933 0.0994018026302 -10060.6 -5324.89 1396.53
13.5893 3486934 3486933 3487042 3486932 0.0838844307975 -9934.13 -5328.32 593.368
13.6185 3486933 3486929 3487042 3486928 0.0337243718735 -10020.9 -6516.98 -408.08
13.6222 3486929 3486928 3487042 3486927 0.0239744283828 -10436.2 -7363.69 63.1888
13.6292 3486928 3486927 3487042 3486926 0.00952166696794 -11368.4 -8119.87 1718.37
9.09111 3487084 3487083 3487085 3487082 14.7634960164 -1.59523 -6.17752 -2.38789
9.22845 3487083 3487082 3487085 3487081 14.0339921445 -1.55826 -8.28506 1.64582
9.33716 3487082 3487081 3487085 3487080 13.3382482898 0.0141959 -11.2738 4.63607
9.38681 3487081 3487080 3487085 3487079 12.6747021048 -3.09014 -1.32716 5.72733
9.52462 3487080 3487079 3487085 3487078 12.0418635439 -11.7634 7.22718 1.67682
9.5956 3487079 3487078 3487085 3487077 11.4973879548 -11.5955 7.00888 2.01185
9.0316 3487120 3487119 3487124 3487118 12.0418635439 -1.05207 0.574762 -2.23484
9.06939 3487119 3487118 3487124 3487117 11.4973879548 -2.09862 -1.3398 0.819628
9.2811 3487118 3487117 3487124 3487116 10.9190331982 7.01619 -5.86212 -0.0744283
9.30763 3487117 3487116 3487124 3487115 10.3674435724 4.72624 -4.95728 3.09222
9.33415 3487116 3487115 3487124 3487114 9.99659046619 -0.886968 -6.53757 3.83568
9.38005 3487115 3487114 3487124 3487113 9.84138043947 6.11291 -10.0792 7.91347
9.08578 3487155 3487154 3487156 3487153 12.6747021048 -0.162676 7.52751 5.91948
9.12424 3487154 3487152 3487156 3487151 11.4973879548 6.62007 1.77423 4.55511
9.2087 3487152 3487151 3487156 3487150 10.9190331982 -0.462138 7.32069 -4.15554
9.26008 3487151 3487147 3487156 3487146 9.38877127194 -4.14313 10.3152 -8.3025
9.0316 3487195 3487194 3487199 3487193 10.3674435724 -4.70059 -2.02598 -2.04368
9.08845 3487194 3487193 3487199 3487192 9.99659046619 -5.35148 -3.1943 -2.825
9.12178 3487193 3487192 3487199 3487191 9.84138043947 -4.49862 -2.7857 -4.11334
9.14344 3487192 3487191 3487199 3487190 9.38877127194 -6.22788 0.603639 3.86608
9.55931 3487300 3487299 3487305 3487298 10.3674435724 15.5868 22.3935 -4.83632
9.30115 3487318 3487317 3487324 3487316 9.00233985416 -3.65752 -15.296 8.22841
9.53332 3487317 3487315 3487324 3487314 8.44947629437 10.4913 -22.2103 17.2123
9.04945 3487340 3487339 3487344 3487338 9.99659046619 -1.00191 2.53803 0.844568
9.06096 3487339 3487338 3487344 3487337 9.84138043947 -0.725257 2.83446 2.9417
9.09111 3487338 3487336 3487344 3487335 9.00233985416 0.696437 5.03444 0.595505
9.10415 3487336 3487335 3487344 3487334 8.9079991856 -0.0792762 2.56579 3.32862
9.13154 3487335 3487334 3487344 3487333 8.44947629437 -0.52845 6.41434 3.88056
9.24548 3487334 3487333 3487344 3487021 8.01217294887 0.363708 5.17616 3.81239
9.09375 3487363 3487362 3487364 3487361 9.84138043947 -21.9455 -28.5787 -1.95827
9.19013 3487413 3487412 3487413 3487411 15.4502666289 0.114136 1.52515 3.80533
9.26008 3487412 3487410 3487413 3487409 14.0339921445 -1.07997 3.08863 4.15327
9.26365 3487410 3487409 3487413 3487408 13.3382482898 -2.73788 4.63803 -2.87877
9.44447 3487409 3487408 3487413 3487407 12.6747021048 -0.87704 -2.01437 5.98459
9.48586 3487408 3487407 3487413 3487406 12.0418635439 -2.85005 2.96394 -1.14415
9.62677 3487407 3487406 3487413 3487405 11.4973879548 -0.870356 -0.181463 3.98533
9.70234 3487406 3487405 3487413 3487404 10.9190331982 -2.65506 3.03643 -6.8785
9.79114 3487405 3487404 3487413 3487403 10.3674435724 0.963272 -2.15353 4.25806
9.81076 3487404 3487403 3487413 3487402 9.99659046619 -0.262088 -1.48612 0.80228
9.83578 3487403 3487401 3487413 3487400 9.38877127194 -0.114439 2.25027 -9.50969
9.97456 3487401 3487400 3487413 3487399 9.00233985416 4.78034 -0.430701 -35.4665
9.99354 3487400 3487399 3487413 3487398 8.9079991856 5.93426 -3.83821 -19.3662
10.1138 3487399 3487398 3487413 3487397 8.44947629437 -8.78985 16.4664 -17.7472
10.222 3487398 3487397 3487413 3487396 8.01217294887 -15.585 25.9002 -20.3652
9.08845 3487455 3487454 3487456 3487453 10.9190331982 -5.83886 26.9842 -1.70932
9.10926 3487454 3487451 3487456 3487450 9.84138043947 4.81179 10.4721 8.94772
9.2361 3487451 3487449 3487456 3487448 9.00233985416 6.98548 6.59479 6.15128
9.25284 3487449 3487448 3487456 3487447 8.9079991856 6.94452 5.55594 5.44581
9.32342 3487448 3487446 3487456 3487445 8.01217294887 -0.00818921 5.84675 8.70223
9.39214 3487446 3487445 3487456 3487444 7.59510714987 -3.29141 8.14454 15.8546
9.15502 3487466 3487465 3487469 3487464 9.99659046619 -11.0367 0.00824037 8.16721
9.20464 3487465 3487464 3487469 3487463 9.84138043947 -2.70507 -0.949382 8.7713
9.45719 3487464 3487463 3487469 3487462 9.38877127194 -3.25085 -2.06606 3.35668
9.46955 3487463 3487462 3487469 3487461 9.00233985416 -0.761089 -0.411565 6.24871
9.2828 3487481 3487480 3487486 3487479 9.38877127194 9.50207 15.9708 -14.572
9.33263 3487480 3487478 3487486 3487477 8.9079991856 14.7259 14.5577 -10.8222
9.06096 3487546 3487545 3487548 3487544 12.6747021048 4.37043 -0.852665 -8.50826
9.19433 3487545 3487544 3487548 3487543 12.0418635439 -1.04481 0.178079 -0.962277
9.19848 3487544 3487542 3487548 3487541 10.9190331982 4.01782 2.37298 -7.84775
9.26365 3487542 3487541 3487548 3487540 10.3674435724 7.42156 2.27166 -4.99524
9.50465 3487541 3487540 3487548 3487539 9.99659046619 13.6373 20.6777 -14.6332
9.77279 3487540 3487538 3487548 3487537 9.38877127194 15.4578 21.2544 2.83295
9.8517 3487538 3487535 3487548 3487534 8.44947629437 5.35321 5.30326 -22.7088
9.12912 3487577 3487576 3487580 3487575 9.38877127194 -1.42496 -18.7655 12.3479
9.30602 3487576 3487573 3487580 3487572 8.44947629437 9.23307 -7.23385 2.90395
9.51675 3487573 3487572 3487580 3487571 8.01217294887 -1.08658 -14.1712 -3.18033
9.01298 3487592 3487591 3487594 3487590 9.99659046619 3.7565 -2.63171 3.10248
9.08578 3487626 3487625 3487627 3487624 13.3382482898 3.51916 1.31447 -0.980047
9.26543 3487625 3487624 3487627 3487623 12.6747021048 -4.51079 11.8368 -3.59186
9.28788 3487624 3487623 3487627 3487622 12.0418635439 -1.52243 5.43362 -4.16822
9.35627 3487623 3487622 3487627 3487621 11.4973879548 9.47525 5.55465 1.35745
9.45605 3487622 3487621 3487627 3487620 10.9190331982 5.47301 9.63439 -1.45896
9.51375 3487621 3487620 3487627 3487619 10.3674435724 7.37841 8.71 -0.550792
9.5629 3487620 3487619 3487627 3487618 9.99659046619 7.82788 12.1674 -0.988088
9.63744 3487619 3487617 3487627 3487616 9.38877127194 5.89117 10.1001 -0.805369
9.74608 3487617 3487615 3487627 3487614 8.44947629437 26.1674 42.549 -5.0045
10.0442 3487615 3487612 3487627 3487611 7.23627606617 16.4383 56.8348 10.3234
10.3381 3487612 3487611 3487627 3487610 7.00541704554 -64.9105 39.5946 -13.8132
10.3532 3487611 3487610 3487627 3487018 6.85511726265 -61.9122 34.8854 -19.4247
9.01928 3487648 3487647 3487650 3487646 10.9190331982 -2.01083 -1.17517 3.5148
9.19433 3487647 3487646 3487650 3487645 10.3674435724 -0.113876 -2.49479 4.0166
9.32031 3487646 3487643 3487650 3487642 9.38877127194 7.82287 0.0635056 6.94926
9.32342 3487643 3487642 3487650 3487641 9.00233985416 -2.75018 -1.67506 3.00868
9.41534 3487642 3487640 3487650 3487639 8.44947629437 1.087 -5.76784 -1.87009
9.13634 3487667 3487666 3487670 3487665 9.99659046619 -11.8079 -4.3393 9.13211
9.15502 3487666 3487665 3487670 3487664 9.84138043947 -11.4625 -0.0399392 8.54454
9.37181 3487665 3487659 3487670 3487658 7.59510714987 -3.51689 7.3494 10.0483
9.0098 3487683 3487682 3487690 3487681 9.84138043947 -2.17981 2.75006 -2.37988
9.06378 3487682 3487681 3487690 3487680 9.38877127194 1.27583 0.413754 -0.436419
9.07216 3487700 3487699 3487707 3487698 9.38877127194 -16.7274 -9.02961 5.74122
9.0316 3487730 3487729 3487735 3487728 8.44947629437 10.7532 -1.70491 23.5254
9.23037 3487848 3487847 3487854 3487846 10.9190331982 21.0507 9.63141 2.38069
9.02548 3487864 3487863 3487868 3487862 9.38877127194 -6.20553 -0.190171 -0.313316
9.03463 3487863 3487862 3487868 3487861 9.00233985416 -4.53574 -1.74959 -1.01608
9.05811 3487862 3487861 3487868 3487860 8.9079991856 -2.39753 -2.38179 -1.68385
9.02548 3487892 3487891 3487894 3487890 7.59510714987 7.11657 -7.9239 -2.20837
9.03763 3487891 3487890 3487894 3487889 7.23627606617 6.50321 -5.40324 -2.05068
9.20464 3488117 3488116 3488120 3488115 12.6747021048 1.97831 -3.47277 7.35714
9.22066 3488116 3488115 3488120 3488114 12.0418635439 -0.741187 -3.36109 0.225392
9.25466 3488115 3488114 3488120 3488113 11.4973879548 -5.48609 -1.29695 -1.25731
9.34609 3488114 3488113 3488120 3488112 10.9190331982 0.969473 -0.532353 0.169319
9.40131 3488113 3488112 3488120 3488111 10.3674435724 -8.51779 -0.800285 6.00293
9.4651 3488112 3488111 3488120 3488110 9.99659046619 -8.53763 2.44434 6.23976
9.54836 3488111 3488109 3488120 3488108 9.38877127194 -13.0527 0.630585 1.75528
9.60785 3488109 3488108 3488120 3488107 9.00233985416 -22.2485 -1.46498 3.35619
9.64416 3488108 3488107 3488120 3488106 8.9079991856 -23.8248 1.1289 3.72123
9.74842 3488107 3488106 3488120 3488105 8.44947629437 -23.7488 -0.641537 3.79242
9.07492 3488143 3488142 3488146 3488141 9.99659046619 4.3121 3.21496 5.23065
9.08309 3488142 3488141 3488146 3488140 9.84138043947 5.1155 1.70586 4.32687
9.32651 3488141 3488140 3488146 3488139 9.38877127194 4.68066 6.88397 22.2523
9.12668 3488174 3488173 3488182 3488172 8.01217294887 8.63635 -6.04448 2.90736
9.17073 3488250 3488249 3488251 3488248 11.4973879548 -2.81073 -7.77997 -1.29164
9.25101 3488249 3488248 3488251 3488247 10.9190331982 -12.2845 -12.3358 5.16319
9.35483 3488248 3488247 3488251 3488246 10.3674435724 -14.3098 -4.33292 10.1833
9.44797 3488247 3488245 3488251 3488244 9.84138043947 -14.1519 0.0964234 10.075
9.60299 3488245 3488244 3488251 3488243 9.38877127194 -4.88375 1.0909 2.42222
9.75248 3488244 3488243 3488251 3488242 9.00233985416 -16.4287 -10.4719 -3.41904
9.76613 3488243 3488242 3488251 3488241 8.9079991856 -21.2671 -9.51161 -2.03662
9.91089 3488242 3488241 3488251 3488240 8.44947629437 -28.453 -12.4002 5.69964
9.99021 3488241 3488240 3488251 3488239 8.01217294887 -18.1239 -0.784651 -4.44775
10.0418 3488240 3488238 3488251 3488237 7.23627606617 3.6337 -24.6579 -11.1838
9.05235 3488283 3488282 3488285 3488281 10.3674435724 -2.03363 -2.59251 -0.229405
9.14108 3488282 3488281 3488285 3488280 9.99659046619 -1.79789 -3.10015 0.593198
9.09111 3488300 3488299 3488304 3488298 9.99659046619 -2.85035 -4.89678 7.35663
9.24548 3488299 3488298 3488304 3488297 9.84138043947 -2.21307 -4.24104 11.4928
9.2811 3488298 3488297 3488304 3488296 9.38877127194 1.65418 2.15448 5.45111
9.44329 3488297 3488294 3488304 3488293 8.44947629437 8.93106 -8.52219 16.4001
9.63138 3488294 3488292 3488304 3488291 7.59510714987 11.7825 -8.56248 20.8701
9.63518 3488292 3488289 3488304 3488288 6.85511726265 8.68974 -3.77029 4.72773
9.73057 3488289 3488288 3488304 3488287 6.49159774567 1.81807 -0.225863 -4.04274
9.91923 3488288 3488287 3488304 3488286 6.14490120342 9.56207 -7.04288 -3.56513
9.2828 3488343 3488342 3488346 3488341 10.3674435724 1.46181 -13.7997 -5.69191
9.45719 3488342 3488341 3488346 3488340 9.99659046619 6.59854 -7.93723 -5.76865
9.55751 3488341 3488340 3488346 3488339 9.84138043947 7.90698 -5.68293 -6.33085
9.0098 3488364 3488363 3488369 3488362 8.9079991856 4.74761 0.413708 4.31022
9.0316 3488363 3488362 3488369 3488361 8.44947629437 6.09019 1.83483 1.90887
9.09637 3488362 3488361 3488369 3488360 8.01217294887 6.29973 1.55949 1.67375
9.14108 3488361 3488360 3488369 3488359 7.59510714987 6.66185 -1.07381 2.43383
9.83769 3488360 3488354 3488369 3487014 5.84661374788 15.5336 -0.453539 21.6984
9.03463 3488380 3488379 3488386 3488378 8.9079991856 -2.98435 -8.50543 -5.08867
9.16852 3488379 3488377 3488386 3488376 8.01217294887 0.438755 1.24302 -4.01984
9.08309 3488404 3488403 3488407 3488402 9.00233985416 10.1341 -6.71653 -1.07085
9.17729 3488403 3488402 3488407 3488401 8.9079991856 7.29968 -4.0011 -0.619584
9.2742 3488402 3488401 3488407 3488400 8.44947629437 12.2923 -4.01982 -4.26254
9.46172 3488401 3488400 3488407 3488399 8.01217294887 8.43875 12.9591 -9.15817
9.50872 3488428 3488427 3488438 3488426 7.23627606617 11.7164 -10.0335 15.1892
9.56735 3488427 3488426 3488438 3488425 7.00541704554 8.17961 -11.743 7.87427
9.01614 3488456 3488455 3488464 3488454 7.23627606617 2.22967 -3.09544 5.55327
9.09637 3488455 3488454 3488464 3488453 7.00541704554 3.09361 -5.28358 5.14457
9.11681 3488454 3488453 3488464 3488452 6.85511726265 4.46984 -10.7779 6.43365
9.14578 3488474 3488473 3488478 3488472 7.23627606617 -4.08053 -6.50376 4.6265
9.18376 3488473 3488472 3488478 3488471 7.00541704554 -3.46087 -2.22625 3.61441
9.20668 3488472 3488471 3488478 3488470 6.85511726265 -6.39756 -0.606218 0.528493
9.00337 3488495 3488494 3488500 3488493 8.44947629437 6.34111 -0.36514 11.0704
9.14811 3488494 3488493 3488500 3488492 8.01217294887 6.13605 4.2538 5.75431
9.01614 3488529 3488528 3488533 3488527 6.85511726265 4.49445 6.14026 -17.3781
9.04653 3488752 3488751 3488756 3488750 10.3674435724 4.35543 -5.88944 -2.62126
9.1573 3488751 3488750 3488756 3488749 9.99659046619 10.3655 -14.395 -3.16225
9.21272 3488750 3488748 3488756 3488747 9.38877127194 7.36926 -3.13105 -6.28628
9.37732 3488748 3488747 3488756 3488746 9.00233985416 12.6533 2.14306 -15.5699
9.44211 3488747 3488746 3488756 3488745 8.9079991856 6.27054 4.12049 -7.24762
9.83483 3488746 3488745 3488756 3488744 8.44947629437 -29.7418 20.0243 12.0124
