logMh | fpID | subhaloID | main leaf ID | descID |  z
9.02548 24040644 24040643 24040647 24040642 14.0339921445 -0.170923 1.74241 -6.28545
9.23988 24040643 24040642 24040647 24040641 13.3382482898 -0.449264 1.32744 -4.80505
9.31401 24040642 24040641 24040647 24040640 12.6747021048 0.743325 3.54006 -7.27486
9.45261 24040641 24040640 24040647 24040639 12.0418635439 -2.52148 -4.52821 -4.52166
9.70039 24040640 24040639 24040647 24040638 11.4973879548 0.292518 -17.9055 19.5167
9.80772 24040639 24040638 24040647 24040637 10.9190331982 -10.4927 -12.8612 10.0288
9.87321 24040638 24040637 24040647 24040636 10.3674435724 -11.3005 4.72835 -5.43858
10.0379 24040637 24040636 24040647 24040635 9.99659046619 -21.6793 -0.778482 3.0563
10.0629 24040636 24040635 24040647 24040634 9.84138043947 -10.2419 -0.507891 -4.63441
10.2601 24040635 24040634 24040647 24040633 9.38877127194 -17.2304 -23.0099 1.71529
10.4679 24040634 24040633 24040647 24040632 9.00233985416 5.21571 -36.4859 -30.4791
10.4895 24040633 24040632 24040647 24040631 8.9079991856 9.10217 -41.6346 -37.5359
10.5949 24040632 24040631 24040647 24040630 8.44947629437 15.2828 -33.9783 -31.4529
10.7245 24040631 24040630 24040647 24040629 8.01217294887 24.6476 -9.48935 -29.0556
10.8234 24040630 24040629 24040647 24040628 7.59510714987 11.5915 -12.4599 -33.442
10.8886 24040629 24040628 24040647 24040627 7.23627606617 -0.481918 -0.279179 -32.1514
10.9474 24040628 24040627 24040647 24040626 7.00541704554 5.14605 12.9687 -26.0856
11.0098 24040627 24040626 24040647 24040625 6.85511726265 1.37015 -1.31713 -23.205
11.0715 24040626 24040625 24040647 24040624 6.49159774567 20.4565 33.7011 -20.3398
11.1341 24040625 24040624 24040647 24040623 6.14490120342 -25.3696 -10.2703 17.5942
11.1716 24040624 24040623 24040647 24040622 6.01075739884 -54.7825 -48.6605 -7.54501
11.2191 24040623 24040622 24040647 24040621 5.84661374788 -83.0915 -107.183 2.32089
11.286 24040622 24040621 24040647 24040620 5.52976580795 -59.3905 -89.3331 -9.47407
11.3128 24040621 24040620 24040647 24040619 5.22758097313 -99.7773 -92.6367 -14.3438
11.4352 24040620 24040619 24040647 24040618 4.99593346816 52.9686 -59.182 17.9163
11.4786 24040619 24040617 24040647 24040616 4.66451770247 47.1532 -32.3989 38.202
11.5214 24040617 24040616 24040647 24040615 4.42803373661 -7.18476 50.6731 -76.7481
11.5304 24040616 24040615 24040647 24040614 4.17683491473 65.3802 96.6926 -125.123
12.2224 24040615 24040612 24040647 24040611 3.70877426464 -35.1657 475.069 -842.108
12.4721 24040612 24040611 24040647 24040610 3.49086136926 -1277.58 567.154 -1281.74
12.5913 24040611 24040610 24040647 24040609 3.28303305796 -760.13 -458.996 -1164.8
12.6604 24040610 24040609 24040647 24040608 3.08482263583 -781.934 -802.077 -1273.74
12.6608 24040609 24040608 24040647 24040607 3.00813107163 -561.072 -687.201 -1217.84
12.6986 24040608 24040607 24040647 24040606 2.89578500573 -1120.28 -1150.27 -1124.9
12.8351 24040607 24040606 24040647 24040605 2.73314261732 -3435.17 -2704.88 -3432.59
12.8801 24040606 24040604 24040647 24040603 2.44422570455 -2085.62 -4996.72 -1342.28
12.9276 24040604 24040603 24040647 24040602 2.31611074396 -1698.94 -5414.13 -582.97
12.9568 24040603 24040602 24040647 24040601 2.20792547238 -1232.83 -5076.09 -174.128
12.9874 24040602 24040601 24040647 24040600 2.1032696526 -1341.37 -5602.29 -440.129
13.0217 24040601 24040600 24040647 24040599 2.00202813925 -1698.75 -6584.87 -911.531
13.051 24040600 24040599 24040647 24040598 1.90408954353 -1282.55 -5570.97 -929.82
13.074 24040599 24040598 24040647 24040597 1.82268925262 -1271.45 -4798.23 -910.114
13.0777 24040598 24040597 24040647 24040596 1.74357057433 -1221.32 -4155.73 -1100.93
13.0817 24040597 24040596 24040647 24040595 1.66666955611 -1384.54 -4154.26 -1410.08
13.0852 24040596 24040595 24040647 24040594 1.60423452207 -1391.84 -4110.56 -1842.89
13.0912 24040595 24040594 24040647 24040593 1.53123902916 -1370.71 -3640.74 -1837.54
13.0958 24040594 24040593 24040647 24040592 1.47197484527 -1155.54 -3055.15 -1966.8
13.1044 24040593 24040592 24040647 24040591 1.41409822037 -923.095 -3058.2 -2360.7
13.1159 24040592 24040591 24040647 24040590 1.3575766674 -650.669 -2704.88 -2486.49
13.132 24040591 24040590 24040647 24040589 1.30237845991 -674.693 -2560.64 -2867.42
13.152 24040590 24040589 24040647 24040588 1.24847261425 -844.184 -2920.39 -3041.23
13.1654 24040589 24040588 24040647 24040587 1.20625808078 -550.421 -3220.14 -4105.4
13.1839 24040588 24040587 24040647 24040586 1.15460271236 -243.055 -3042.33 -4786.98
13.199 24040587 24040586 24040647 24040585 1.11415056377 -243.993 -2670.64 -5180.07
13.2119 24040586 24040585 24040647 24040584 1.07445789455 -262.683 -2408.63 -5352.31
13.23 24040585 24040584 24040647 24040583 1.03551044566 -402.855 -2319.25 -5036.52
13.2464 24040584 24040583 24040647 24040582 0.997294225782 -303.93 -2110.43 -5305.42
13.252 24040583 24040582 24040647 24040581 0.987852810816 -277.148 -2153.57 -5450.42
13.2739 24040582 24040581 24040647 24040580 0.950531351585 110.747 -1897.94 -6558.02
13.2869 24040581 24040580 24040647 24040579 0.923000816178 -100.691 -2082.87 -6437.2
13.3022 24040580 24040579 24040647 24040578 0.886896937575 -379.467 -2886.37 -6367.36
13.3141 24040579 24040578 24040647 24040577 0.851470900625 -678.971 -3286.69 -6624.07
13.32 24040578 24040577 24040647 24040576 0.816709979012 -831.986 -3282.62 -6812.57
13.3253 24040577 24040576 24040647 24040575 0.791068248946 -1101.69 -3200.18 -6870.11
13.3297 24040576 24040575 24040647 24040574 0.757441372616 -847.87 -2983.88 -6949.49
13.3321 24040575 24040574 24040647 24040573 0.732636182022 -1050.26 -3155.23 -6827.49
13.3454 24040574 24040573 24040647 24040572 0.700106353719 -1142.9 -3297.05 -7681.15
13.357 24040573 24040572 24040647 24040571 0.676110411213 -1575.66 -3273.53 -7548.98
13.3657 24040572 24040571 24040647 24040570 0.644641840685 -1289.74 -3145.09 -8791.92
13.3708 24040571 24040570 24040647 24040569 0.621428745243 -990.094 -2663.44 -10207.8
13.3766 24040570 24040569 24040647 24040568 0.598543288188 -694.519 -2648.74 -10875.3
13.3814 24040569 24040568 24040647 24040567 0.575980845108 -569.279 -2721.69 -11067.8
13.3903 24040568 24040567 24040647 24040566 0.546392183141 -528.396 -2962.82 -11443.3
13.3973 24040567 24040566 24040647 24040565 0.524565820434 -730.716 -3026.32 -12074.5
13.4096 24040566 24040565 24040647 24040564 0.503047523245 -363.645 -3124.2 -12393.8
13.4142 24040565 24040564 24040647 24040563 0.481832943421 358.059 -2029.98 -13435.8
13.8548 24040564 24040539 24040647 24040538 0.0736613846564 -13987.7 -20653.4 -34765.4
13.8629 24040539 24040538 24040647 24040537 0.0585073227945 -13668.5 -20288.1 -34199.9
13.8709 24040538 24040533 24040647 -1 2.22044604925e-16 -13857.0 -20010.1 -34568.0
9.04653 24040650 24040649 24040652 24040648 12.6747021048 0.641837 -1.88102 -1.65608
9.04358 24040662 24040661 24040665 24040660 10.9190331982 -3.6409 -3.91187 -3.05284
9.0316 24040667 24040666 24040669 24040636 10.3674435724 -0.732098 1.36016 -5.11047
9.06096 24040692 24040691 24040695 24040690 10.9190331982 2.91588 -0.322757 4.45377
9.13154 24040691 24040690 24040695 24040689 10.3674435724 2.59711 -2.47211 6.98172
9.20668 24040701 24040700 24040706 24040699 10.3674435724 8.89735 6.2817 0.261072
9.10157 24040740 24040739 24040745 24040738 10.9190331982 3.72992 3.8912 -1.88914
9.29622 24040739 24040737 24040745 24040736 9.99659046619 -13.035 -1.77358 1.28732
9.34461 24040737 24040735 24040745 24040734 9.38877127194 -8.07115 2.39034 -1.17765
9.35914 24040735 24040731 24040745 24040629 8.01217294887 3.44123 3.96084 0.359222
9.07216 24040819 24040818 24040821 24040817 15.4502666289 2.40456 1.8977 1.59813
9.09637 24040818 24040817 24040821 24040816 14.7634960164 1.47599 1.81009 2.32935
9.26896 24040817 24040816 24040821 24040815 14.0339921445 1.18803 1.66238 -1.76845
9.43136 24040816 24040815 24040821 24040814 13.3382482898 3.85071 5.36859 -7.57532
9.51375 24040815 24040814 24040821 24040813 12.6747021048 6.48301 4.86546 -7.04386
9.57175 24040814 24040813 24040821 24040812 12.0418635439 5.15764 4.50248 -5.58385
9.66655 24040813 24040812 24040821 24040811 11.4973879548 1.77018 -4.08704 2.44514
9.76388 24040812 24040811 24040821 24040810 10.9190331982 1.7189 -7.64571 7.42224
9.85078 24040811 24040810 24040821 24040809 10.3674435724 4.06287 -8.52981 9.97844
10.0307 24040810 24040809 24040821 24040808 9.99659046619 14.0913 -1.69659 4.47789
9.10671 24040837 24040836 24040837 24040835 12.6747021048 -1.66414 7.4859 -5.64101
9.01298 24040876 24040875 24040883 24040874 9.84138043947 0.245907 -0.664604 -2.2475
9.0316 24040875 24040874 24040883 24040873 9.38877127194 0.319447 -0.760214 -1.93727
9.03463 24040874 24040873 24040883 24040872 9.00233985416 2.18693 -1.32214 0.180683
9.12912 24040873 24040871 24040883 24040870 8.44947629437 5.33867 -7.15567 -9.45271
9.07766 24040909 24040908 24040912 24040907 12.0418635439 -0.133181 0.875123 1.44023
9.08578 24040908 24040907 24040912 24040906 11.4973879548 0.237776 4.00316 -0.937825
9.21869 24040907 24040906 24040912 24040905 10.9190331982 -0.959574 7.09647 1.07719
9.21869 24040906 24040905 24040912 24040904 10.3674435724 -1.1362 5.44407 -0.132701
9.51275 24040905 24040904 24040912 24040903 9.99659046619 -6.4328 -9.83418 -11.5719
9.52657 24040904 24040903 24040912 24040902 9.84138043947 -6.18974 -10.2331 -12.2868
9.58975 24040903 24040900 24040912 24040899 8.9079991856 -6.59459 6.62163 -12.5107
9.05235 24041009 24041008 24041016 24041007 7.59510714987 7.52552 10.9231 1.90666
9.08309 24041008 24041007 24041016 24041006 7.23627606617 4.92753 6.61705 -0.435786
9.23799 24041007 24041006 24041016 24041005 7.00541704554 1.45048 6.44986 7.70816
9.00012 24041073 24041072 24041078 24041071 9.99659046619 -3.21726 1.83529 -2.96722
9.0098 24041072 24041071 24041078 24041070 9.84138043947 -3.05949 3.46836 -3.71097
9.01614 24041071 24041070 24041078 24041069 9.38877127194 -2.13062 3.70701 -1.59697
9.10157 24041070 24041069 24041078 24041068 9.00233985416 -7.03945 3.44135 1.21887
9.10671 24041069 24041068 24041078 24041067 8.9079991856 -9.6482 4.78272 -0.0900342
9.2862 24041068 24041067 24041078 24041066 8.44947629437 0.445229 -5.38514 -2.36023
9.33111 24041067 24041066 24041078 24041065 8.01217294887 -0.223497 -5.57648 -3.91453
9.36902 24041066 24041065 24041078 24041064 7.59510714987 1.70794 -4.25686 -5.34328
9.19013 24041234 24041233 24041236 24041232 9.99659046619 1.66129 24.174 3.45453
9.29622 24041233 24041231 24041236 24041230 9.38877127194 -6.27116 -4.98927 -6.0359
9.50567 24041231 24041230 24041236 24041229 9.00233985416 17.8012 8.643 26.4541
9.52754 24041230 24041229 24041236 24041228 8.9079991856 21.7375 18.1313 33.436
9.34313 24041242 24041241 24041251 24041223 7.00541704554 -2.54615 -10.3419 2.52062
9.01298 24041295 24041294 24041299 24041293 9.00233985416 0.0594367 -0.162995 1.97161
9.04653 24041294 24041293 24041299 24041292 8.9079991856 0.682317 0.172082 0.630905
9.05811 24041293 24041292 24041299 24041291 8.44947629437 1.82375 0.825131 2.38995
9.12668 24041292 24041285 24041299 24041284 6.14490120342 6.29565 7.36862 0.698737
9.09111 24041313 24041312 24041316 24041311 7.59510714987 2.55799 4.70642 3.75515
9.15273 24041312 24041311 24041316 24041310 7.23627606617 3.22207 9.9022 -3.8988
9.19013 24041311 24041310 24041316 24041309 7.00541704554 3.20705 8.81802 2.28791
9.25284 24041310 24041309 24041316 24041308 6.85511726265 1.49158 4.4334 -1.99
9.08309 24041334 24041333 24041339 24041332 9.00233985416 3.05621 -16.5322 -4.13401
9.14108 24041333 24041331 24041339 24041330 8.44947629437 -0.157367 -7.8538 -2.51775
9.20055 24041331 24041330 24041339 24041329 8.01217294887 -1.0409 -17.6181 -2.81372
9.06378 24041393 24041392 24041400 24041391 7.59510714987 -6.09879 0.247568 5.82786
9.08578 24041392 24041391 24041400 24041390 7.23627606617 -2.56231 -4.97973 3.39169
9.30602 24041391 24041390 24041400 24041389 7.00541704554 3.26946 -7.86514 8.04161
9.37457 24041390 24041389 24041400 24041388 6.85511726265 3.71749 -8.61611 11.1158
9.50567 24041389 24041388 24041400 24041387 6.49159774567 2.62828 -8.25945 11.3141
9.65151 24041388 24041387 24041400 24041386 6.14490120342 6.25393 -4.29311 13.5833
9.65297 24041387 24041386 24041400 24041385 6.01075739884 1.55903 -4.65552 11.9415
9.71322 24041386 24041385 24041400 24041384 5.84661374788 24.8352 2.07417 36.4234
9.72874 24041385 24041384 24041400 24041383 5.52976580795 -0.529092 -12.6783 21.3836
9.79482 24041384 24041383 24041400 24041382 5.22758097313 1.12987 1.09952 16.6467
9.12668 24041451 24041450 24041456 24041449 8.44947629437 6.93111 25.8391 8.41805
9.1663 24041450 24041448 24041456 24041447 7.59510714987 6.8997 7.54185 -1.21221
9.23988 24041448 24041447 24041456 24041446 7.23627606617 2.9273 23.4981 0.819924
9.21472 24041471 24041470 24041474 24041469 8.01217294887 -7.14886 -2.16192 -4.21813
9.19848 24041554 24041553 24041558 24041552 9.99659046619 -1.57995 -3.12055 3.40201
9.23229 24041553 24041552 24041558 24041551 9.84138043947 -3.99541 -5.095 4.24402
9.24548 24041552 24041551 24041558 24041550 9.38877127194 -2.82971 -4.2736 3.8161
9.27766 24041551 24041550 24041558 24041549 9.00233985416 -3.40081 -4.31089 5.04221
9.31401 24041550 24041549 24041558 24041548 8.9079991856 -4.64521 -3.84264 6.75476
9.45605 24041549 24041548 24041558 24041547 8.44947629437 -16.6977 5.29182 8.55487
9.54372 24041548 24041547 24041558 24041546 8.01217294887 -16.2319 1.39711 10.5644
9.67767 24041547 24041546 24041558 24041545 7.59510714987 -18.3065 11.27 12.6401
9.80054 24041546 24041545 24041558 24041544 7.23627606617 -25.1058 36.8644 8.83682
9.86926 24041545 24041544 24041558 24041543 7.00541704554 -23.9875 43.3502 5.42165
9.10415 24041583 24041582 24041589 24041581 9.99659046619 -0.739138 6.93211 4.72514
9.19433 24041582 24041581 24041589 24041580 9.84138043947 -5.91609 8.90019 -0.343583
9.19848 24041581 24041579 24041589 24041578 9.00233985416 -3.7127 2.75691 4.94463
9.20464 24041579 24041578 24041589 24041577 8.9079991856 -4.88095 1.31824 2.62018
9.24548 24041578 24041577 24041589 24041576 8.44947629437 -4.42489 5.10692 2.4422
9.04358 24041609 24041608 24041617 24041607 8.9079991856 4.17511 11.0605 4.05944
9.15956 24041608 24041607 24041617 24041606 8.44947629437 1.37601 -1.27273 8.18026
9.31083 24041607 24041606 24041617 24041605 8.01217294887 -10.1919 -6.04282 12.6161
9.5026 24041606 24041604 24041617 24041603 7.23627606617 -31.1086 -4.57045 12.8029
9.60785 24041604 24041603 24041617 24041602 7.00541704554 -30.4356 -11.2802 15.2753
9.72568 24041603 24041601 24041617 24041600 6.49159774567 -37.8887 -14.2467 16.4758
9.74373 24041601 24041599 24041617 24041598 6.01075739884 -27.0149 -12.9812 17.3748
9.78368 24041599 24041597 24041617 24041596 5.52976580795 -38.8808 -6.76325 9.48169
9.1193 24041666 24041665 24041666 24041664 6.14490120342 16.9122 -22.4588 -7.20114
9.18802 24041665 24041663 24041666 24041662 5.84661374788 13.0462 -16.2246 -3.27062
9.27246 24041663 24041662 24041666 24041661 5.52976580795 19.3999 -29.4128 -7.02637
9.0098 24041754 24041753 24041768 24041752 6.49159774567 -0.12644 3.2927 6.38064
9.0666 24041820 24041819 24041827 24041818 6.14490120342 2.39488 3.06718 -2.41268
9.12668 24041974 24041973 24041977 24041972 10.3674435724 -4.40113 2.20408 -7.22959
9.27766 24041973 24041972 24041977 24041971 9.99659046619 -2.37951 5.03144 -4.31352
9.27766 24041972 24041970 24041977 24041969 9.38877127194 -4.72014 2.53243 -6.96289
9.39609 24041970 24041969 24041977 24041968 9.00233985416 -2.07446 0.565595 -11.2917
9.40518 24041969 24041968 24041977 24041967 8.9079991856 -1.79622 1.76509 -11.3478
9.57262 24041968 24041967 24041977 24041966 8.44947629437 -5.93082 -13.9802 -23.1708
9.68447 24041967 24041966 24041977 24041965 8.01217294887 -6.60743 -9.32094 -20.0491
9.79534 24041966 24041965 24041977 24041964 7.59510714987 6.00125 -4.44395 -33.5558
9.84661 24041965 24041964 24041977 24041963 7.23627606617 -6.1129 -1.67898 -32.7509
9.89745 24041964 24041963 24041977 24041962 7.00541704554 -3.57577 2.26166 -39.0194
9.97143 24041963 24041962 24041977 24041961 6.85511726265 -13.9012 -3.0252 -37.0871
10.1205 24041962 24041961 24041977 24041960 6.49159774567 2.5111 -17.0502 -62.805
10.1799 24041961 24041960 24041977 24041959 6.14490120342 4.0176 -27.0157 -59.8434
10.2271 24041960 24041957 24041977 24041956 5.52976580795 -5.08026 -45.6939 -55.5608
10.2725 24041957 24041955 24041977 24041954 4.99593346816 -26.8703 -48.9816 -55.7235
9.04653 24042035 24042034 24042038 24042033 10.9190331982 -0.66955 3.87344 -1.9418
9.16407 24042034 24042033 24042038 24042032 10.3674435724 -1.24119 4.94575 0.232321
9.21272 24042033 24042032 24042038 24042031 9.99659046619 -1.75725 5.56739 1.89951
9.2361 24042032 24042031 24042038 24042030 9.84138043947 -1.42604 3.50239 0.290662
9.29124 24042031 24042030 24042038 24042029 9.38877127194 -2.36787 -3.25508 0.735549
9.42281 24042030 24042029 24042038 24042028 9.00233985416 -6.74476 -18.4413 -13.3058
9.47286 24042029 24042028 24042038 24042027 8.9079991856 -8.84134 -14.9358 -10.1258
9.53523 24042028 24042027 24042038 24042026 8.44947629437 -5.95632 -12.6581 -2.11652
9.54836 24042027 24042026 24042038 24042025 8.01217294887 -5.10683 -13.692 1.13328
9.55113 24042026 24042025 24042038 24042024 7.59510714987 -4.28775 -14.9694 2.55516
10.1797 24042025 24042018 24042038 24042017 5.84661374788 -1.60422 -29.4123 -58.1593
9.04945 24042093 24042092 24042096 24042091 10.9190331982 2.46759 1.07926 0.467938
9.1573 24042092 24042090 24042096 24042089 9.99659046619 0.337227 1.41384 -0.00199255
9.29622 24042090 24042088 24042096 24042087 9.38877127194 2.29205 2.50988 0.56948
9.33866 24042088 24042087 24042096 24042086 9.00233985416 -0.59185 -2.53539 -0.910434
9.36622 24042087 24042086 24042096 24042085 8.9079991856 -0.173674 -1.46374 -0.780997
9.48479 24042086 24042085 24042096 24042084 8.44947629437 4.68676 -2.702 -2.12958
9.55569 24042085 24042084 24042096 24042083 8.01217294887 5.53438 -1.04576 -7.2831
9.69515 24042084 24042083 24042096 24042082 7.59510714987 1.97988 -4.85047 -0.46763
9.88358 24042083 24042082 24042096 24042081 7.23627606617 25.7063 -8.55527 0.161828
9.97317 24042082 24042081 24042096 24042080 7.00541704554 -6.93127 2.97 1.00896
10.1062 24042081 24042080 24042096 24042079 6.49159774567 -25.8139 14.2997 -6.54072
10.1448 24042080 24042079 24042096 24042078 6.14490120342 -22.5546 -2.02105 4.04384
10.2246 24042079 24042078 24042096 24042077 6.01075739884 -46.3364 10.3424 -13.3724
10.2606 24042078 24042077 24042096 24042076 5.84661374788 -57.442 10.0421 -13.0315
10.3211 24042077 24042076 24042096 24042075 5.52976580795 -81.1692 -10.7243 -47.7543
10.3749 24042076 24042075 24042096 24042074 5.22758097313 -90.1563 5.46942 -56.9316
9.0666 24042118 24042117 24042123 24042116 9.84138043947 0.210676 -2.11206 -0.647244
9.12424 24042117 24042116 24042123 24042115 9.38877127194 -0.364863 -1.31109 -1.25151
9.15273 24042116 24042115 24042123 24042114 9.00233985416 -1.68571 1.27209 -2.10212
9.1663 24042115 24042114 24042123 24042113 8.9079991856 1.13085 3.0544 -0.18179
9.40518 24042114 24042113 24042123 24042112 8.44947629437 -3.93217 18.2246 -1.43581
10.0267 24042113 24042108 24042123 24042080 6.85511726265 -31.204 9.16621 -9.35819
9.28956 24042159 24042158 24042165 24042157 7.59510714987 -0.545322 -9.59051 4.46116
9.33716 24042158 24042156 24042165 24042155 7.00541704554 -0.984567 -7.56531 4.72875
9.34756 24042156 24042154 24042165 24042153 6.49159774567 8.75696 -7.75293 -3.6658
9.45719 24042154 24042153 24042165 24042152 6.14490120342 7.7784 9.23735 -9.17469
9.02855 24042191 24042190 24042194 24042189 9.99659046619 -3.67433 -5.31988 -0.127803
9.05524 24042190 24042189 24042194 24042188 9.84138043947 -2.53205 -4.87588 -0.114889
9.06378 24042189 24042188 24042194 24042187 9.38877127194 -2.37346 -3.87321 0.304411
9.09637 24042188 24042187 24042194 24042186 9.00233985416 -2.00977 -3.81242 2.1521
9.09898 24042187 24042186 24042194 24042185 8.9079991856 -2.14379 -3.35114 1.76721
9.1573 24042186 24042185 24042194 24042184 8.44947629437 -0.168797 -3.40629 1.27908
