logMh | fpID | subhaloID | main leaf ID | descID |  z
9.18376 18391152 18391151 18391158 18391150 9.00233985416 -0.303137 -3.87298 -7.59203
9.26896 18391151 18391150 18391158 18391149 8.9079991856 -2.76065 -5.23496 -7.75601
9.35048 18391150 18391149 18391158 18391148 8.44947629437 -3.42554 -0.978012 -2.92308
9.38141 18391149 18391148 18391158 18391147 8.01217294887 -1.41488 0.615855 -2.33757
9.50567 18391148 18391147 18391158 18391146 7.59510714987 1.1976 -0.929814 -0.449489
9.54651 18391147 18391146 18391158 18391145 7.00541704554 -6.012 -1.78242 6.98926
10.2042 18391146 18391145 18391158 18391144 6.85511726265 -44.1809 -5.08018 -54.4744
10.3455 18391145 18391144 18391158 18391143 6.49159774567 -15.2616 -14.4475 -4.36887
10.4703 18391144 18391143 18391158 18391142 6.14490120342 -25.9531 -18.1276 0.665493
10.4965 18391143 18391142 18391158 18391141 6.01075739884 -9.17279 -12.1984 -0.709341
10.6482 18391142 18391140 18391158 18391139 5.52976580795 30.6514 -27.8927 -11.5484
10.84 18391140 18391139 18391158 18391138 5.22758097313 -118.576 -119.39 66.5381
10.9527 18391139 18391138 18391158 18391137 4.99593346816 -48.3347 -162.376 3.31644
11.0501 18391138 18391136 18391158 18391135 4.66451770247 -61.6022 -91.7015 -26.0652
11.0929 18391136 18391135 18391158 18391134 4.42803373661 -93.9264 -28.2267 -34.3042
11.1455 18391135 18391134 18391158 18391133 4.17683491473 -65.7551 -12.7437 10.3318
11.1779 18391134 18391133 18391158 18391132 4.00794511147 -88.8101 4.43895 21.2307
11.1864 18391133 18391132 18391158 18391131 3.93726108473 -93.8795 16.1509 27.4501
11.2041 18391132 18391131 18391158 18391130 3.70877426464 -80.5045 6.72053 -6.56544
11.2212 18391131 18391130 18391158 18391129 3.49086136926 -60.0099 -22.5417 -52.1232
11.2218 18391130 18391127 18391158 18391126 3.00813107163 -24.6201 12.6351 -109.286
11.2485 18391127 18391126 18391158 18391125 2.89578500573 -12.9073 30.1513 -114.731
11.2743 18391126 18391125 18391158 18391124 2.73314261732 23.0668 47.1271 -105.978
11.2879 18391125 18391124 18391158 18391123 2.5772902716 -35.4685 48.32 -88.9387
11.3094 18391124 18391123 18391158 18391122 2.44422570455 0.501917 71.8744 -53.176
11.3451 18391123 18391122 18391158 18391121 2.31611074396 51.3172 146.516 -93.1296
11.3879 18391122 18391121 18391158 18391120 2.20792547238 85.072 208.447 -145.934
11.4126 18391121 18391120 18391158 18391119 2.1032696526 101.016 136.873 -175.489
11.4239 18391120 18391119 18391158 18391118 2.00202813925 139.974 177.456 -144.944
11.4383 18391119 18391118 18391158 18391117 1.90408954353 88.7541 149.759 -120.27
11.4749 18391118 18391117 18391158 18391116 1.82268925262 120.063 204.629 -146.227
11.4972 18391117 18391116 18391158 18391115 1.74357057433 97.3389 209.662 -171.557
11.5141 18391116 18391115 18391158 18391114 1.66666955611 84.0253 236.9 -215.657
11.52 18391115 18391114 18391158 18391113 1.60423452207 119.103 229.517 -215.773
11.5317 18391114 18391113 18391158 18391112 1.53123902916 149.069 115.032 -187.678
11.5324 18391113 18391112 18391158 18391111 1.47197484527 124.017 233.937 -168.812
11.5537 18391112 18391111 18391158 18391110 1.41409822037 158.341 230.678 -162.595
11.5674 18391111 18391110 18391158 18391109 1.3575766674 153.225 236.53 -185.975
11.5726 18391110 18391105 18391158 18391104 1.11415056377 122.226 241.204 -178.93
11.5731 18391105 18391104 18391158 18391103 1.07445789455 111.843 243.171 -180.041
9.18589 18391181 18391180 18391186 18391179 9.99659046619 0.225353 0.0651072 -4.09866
9.18589 18391180 18391179 18391186 18391178 9.84138043947 0.425718 0.110255 -3.96786
9.25648 18391179 18391178 18391186 18391177 9.38877127194 -0.634409 0.119962 -1.29728
9.34016 18391178 18391177 18391186 18391176 9.00233985416 0.648965 -0.949675 -5.12356
9.35194 18391177 18391176 18391186 18391175 8.9079991856 0.286927 -0.26404 -3.42608
9.4026 18391176 18391175 18391186 18391174 8.44947629437 5.08819 2.49745 -1.13701
9.81428 18391175 18391173 18391186 18391172 7.23627606617 3.32783 8.69231 -5.4511
9.9208 18391173 18391172 18391186 18391171 7.00541704554 6.66654 10.3012 -9.37687
9.00337 18391247 18391246 18391248 18391245 11.4973879548 1.3373 4.17931 -11.3527
9.07492 18391246 18391245 18391248 18391244 10.9190331982 -5.67277 4.66539 -2.98995
9.11431 18391245 18391243 18391248 18391242 9.99659046619 -1.16686 2.08502 2.9038
9.11681 18391243 18391242 18391248 18391241 9.84138043947 -0.990868 1.16533 2.25944
9.25828 18391242 18391241 18391248 18391240 9.38877127194 -3.06842 6.37506 -1.08366
9.28788 18391241 18391240 18391248 18391239 9.00233985416 -3.25892 4.93321 -0.636072
9.32031 18391240 18391239 18391248 18391238 8.9079991856 -3.29509 4.18773 -0.991792
9.49744 18391239 18391238 18391248 18391237 8.44947629437 -4.6068 3.16469 6.18137
9.80363 18391238 18391237 18391248 18391236 8.01217294887 0.562044 -0.408764 7.3724
9.00337 18391263 18391262 18391267 18391261 8.9079991856 -8.35024 6.07561 9.40521
9.08038 18391262 18391261 18391267 18391260 8.44947629437 -6.78251 -5.88978 21.1033
9.09375 18391261 18391259 18391267 18391258 7.59510714987 -10.499 -10.19 28.392
10.9839 18391314 18391313 18391326 18391136 4.93938066349 -58.7522 -166.361 -11.2992
9.24362 18391363 18391362 18391370 18391361 7.59510714987 -5.89892 18.0313 8.31343
9.34461 18391362 18391361 18391370 18391360 7.23627606617 -4.244 10.6568 3.01708
9.37319 18391361 18391359 18391370 18391358 6.85511726265 -2.57359 10.1735 0.938281
9.6865 18391359 18391358 18391370 18391357 6.49159774567 9.699 -1.54879 -17.1658
9.00012 18391382 18391381 18391395 18391380 5.84661374788 5.21228 -4.82996 0.00966066
9.11179 18391435 18391434 18391441 18391433 9.84138043947 1.15945 4.90178 -3.55025
9.12912 18391434 18391432 18391441 18391431 9.00233985416 -4.14694 3.98926 3.27265
9.14578 18391432 18391431 18391441 18391430 8.9079991856 -4.34293 2.96576 3.94659
9.1573 18391431 18391430 18391441 18391429 8.44947629437 -3.38735 4.60699 2.88779
9.23988 18391430 18391429 18391441 18391428 8.01217294887 -3.40062 -0.986962 2.42315
9.41659 18391429 18391428 18391441 18391427 7.59510714987 -9.05152 -1.35803 9.59039
9.7342 18391428 18391427 18391441 18391426 7.23627606617 6.00887 30.4902 -5.59998
9.74725 18391427 18391425 18391441 18391424 6.85511726265 7.20283 34.504 -2.69135
9.84847 18391425 18391424 18391441 18391423 6.49159774567 6.62481 39.9745 -1.53901
10.6267 18391424 18391421 18391441 18391420 5.84661374788 -13.6827 22.0768 -10.3445
9.13871 18391446 18391445 18391451 18391444 8.44947629437 4.42098 1.86201 -4.96563
9.19848 18391445 18391444 18391451 18391443 8.01217294887 1.24445 -1.26985 -5.7203
9.09898 18391524 18391523 18391531 18391522 6.14490120342 5.21384 1.79963 -8.1244
9.19013 18391523 18391522 18391531 18391521 6.01075739884 7.7257 2.07031 -3.05419
9.29457 18391522 18391521 18391531 18391520 5.84661374788 12.9005 -4.2772 -5.08998
9.01614 18391582 18391581 18391588 18391580 9.38877127194 6.38034 -4.38445 4.58494
9.01928 18391581 18391580 18391588 18391579 9.00233985416 5.87338 -3.78057 4.06485
9.08309 18391580 18391579 18391588 18391578 8.9079991856 2.65124 -4.40627 2.59902
9.09637 18391579 18391578 18391588 18391577 8.44947629437 1.81303 -1.47776 -0.747166
9.09898 18391578 18391576 18391588 18391575 7.59510714987 1.32808 -5.08382 0.999205
9.16182 18391576 18391575 18391588 18391574 7.23627606617 1.58269 -4.73069 1.30779
9.8697 18391575 18391572 18391588 18391571 6.49159774567 -9.19284 29.3484 -21.3039
9.91409 18391572 18391571 18391588 18391570 6.14490120342 -4.73978 26.3789 -10.935
10.0587 18391571 18391569 18391588 18391568 5.84661374788 -22.3066 34.4286 -4.68001
10.2444 18391569 18391568 18391588 18391567 5.52976580795 -24.2004 26.44 -17.7025
9.03763 18391594 18391593 18391600 18391592 8.44947629437 5.56818 -2.22483 7.89378
9.43015 18391593 18391591 18391600 18391590 7.59510714987 2.51647 11.353 -0.311862
9.66936 18391591 18391589 18391600 18391572 7.00541704554 -1.18846 20.4633 -8.17208
9.27938 18391607 18391606 18391614 18391605 8.01217294887 15.1871 7.8852 8.9867
9.50567 18391606 18391604 18391614 18391603 7.23627606617 5.08609 9.93818 -0.911202
9.01928 18391634 18391633 18391638 18391632 9.38877127194 0.53992 -12.2574 2.35918
9.10671 18391633 18391632 18391638 18391631 9.00233985416 -1.2543 -10.1404 1.00897
9.11431 18391632 18391631 18391638 18391630 8.9079991856 -0.321375 -8.73975 2.43108
9.37319 18391631 18391630 18391638 18391629 8.44947629437 15.8617 -12.3687 13.8222
9.45719 18391630 18391628 18391638 18391627 7.59510714987 11.0289 6.3476 22.2032
9.47176 18391628 18391627 18391638 18391626 7.23627606617 12.6485 5.14746 19.6798
9.96298 18391627 18391625 18391638 18391624 6.85511726265 -82.2441 36.5078 3.37581
9.02239 18391683 18391682 18391692 18391681 6.49159774567 1.09044 -2.38578 2.00516
9.04945 18391682 18391681 18391692 18391680 6.14490120342 -0.320633 -3.39949 1.47037
9.08309 18391681 18391680 18391692 18391679 6.01075739884 -0.897772 -5.07956 0.64701
9.09637 18391680 18391679 18391692 18391678 5.84661374788 2.57968 -8.20066 2.10507
9.02548 18391700 18391699 18391710 18391698 4.42803373661 -6.87493 0.425556 -17.5206
9.36481 18391699 18391698 18391710 18391697 4.17683491473 -4.01346 -17.4756 -30.9909
9.17512 18391774 18391773 18391778 18391772 8.44947629437 -2.24661 6.60537 6.22288
9.33866 18391773 18391772 18391778 18391771 8.01217294887 -2.19069 3.8643 12.6676
9.52267 18391772 18391771 18391778 18391770 7.59510714987 -2.70779 6.24446 16.4338
9.78368 18391771 18391770 18391778 18391769 7.23627606617 -17.721 9.82201 39.0558
9.89745 18391770 18391763 18391778 18391762 5.52976580795 -5.3756 3.16543 40.9499
9.14578 18391836 18391835 18391842 18391834 7.59510714987 -3.10414 1.69788 -0.176351
9.16407 18391835 18391833 18391842 18391832 6.85511726265 -2.82187 12.2707 -5.12007
9.00337 18391849 18391848 18391859 18391847 3.28303305796 28.4607 19.8034 10.5045
9.0098 18391906 18391905 18391913 18391904 8.01217294887 2.0337 1.67962 0.840171
9.06378 18391905 18391904 18391913 18391903 7.59510714987 -1.45503 0.157606 2.16061
9.08578 18391904 18391903 18391913 18391902 7.23627606617 -2.10527 -1.24863 2.80559
9.09637 18391903 18391902 18391913 18391901 7.00541704554 -1.50848 -1.3103 3.61031
9.19641 18391902 18391900 18391913 18391899 6.49159774567 2.93652 6.57881 3.29011
9.29457 18391900 18391899 18391913 18391898 6.14490120342 -6.90881 4.34514 8.79561
9.29622 18391899 18391897 18391913 18391896 5.84661374788 -9.44001 -0.699148 8.25001
9.30115 18391943 18391942 18391952 18391941 4.66451770247 -7.44232 -17.9711 -18.5714
9.07766 18392040 18392039 18392050 18392038 7.00541704554 -3.34941 1.32041 5.22992
9.13154 18392039 18392038 18392050 18392037 6.85511726265 -9.60118 1.08516 7.45482
9.17512 18392038 18392037 18392050 18392036 6.49159774567 -6.46814 -0.403087 8.79047
9.19641 18392037 18392034 18392050 18392033 5.84661374788 -5.65981 1.87057 12.3193
9.25648 18392034 18392033 18392050 18392032 5.52976580795 -8.88605 0.232376 8.06494
9.27594 18392033 18392031 18392050 18392030 4.99593346816 0.0613448 -0.151621 7.20824
9.06378 18392085 18392084 18392090 18392083 6.49159774567 2.73107 10.7895 -18.025
9.0666 18392084 18392083 18392090 18392082 6.14490120342 6.16187 7.48878 -14.6807
9.09898 18392083 18392082 18392090 18392081 6.01075739884 7.18411 9.47616 -12.4346
9.1193 18392082 18392080 18392090 18392079 5.52976580795 3.48163 11.016 -13.4802
9.2742 18392243 18392242 18392245 18392241 6.14490120342 -37.7805 -9.83819 -52.3178
9.0066 18392359 18392358 18392364 18392357 9.00233985416 6.80537 -5.65271 3.5838
9.0066 18392358 18392357 18392364 18392356 8.9079991856 6.57602 -5.47323 3.84878
9.08038 18392357 18392356 18392364 18392355 8.44947629437 10.9406 -3.4626 3.44016
9.10157 18392356 18392354 18392364 18392353 7.59510714987 2.06656 -1.76866 2.48992
9.30278 18392354 18392353 18392364 18392352 7.23627606617 2.41455 -3.83674 6.95616
9.33566 18392353 18392352 18392364 18392351 7.00541704554 7.58882 -0.057188 4.318
9.35194 18392352 18392349 18392364 18392348 6.14490120342 -3.6263 -1.19989 5.88909
9.0066 18392474 18392473 18392477 18392472 4.17683491473 0.811554 -1.14093 13.0925
9.0066 18392473 18392467 18392477 18392466 3.08482263583 -4.57321 -4.90337 15.9862
9.02855 18392467 18392463 18392477 18392462 2.5772902716 -0.424825 -4.82817 13.5718
9.02855 18392566 18392565 18392573 18392564 7.23627606617 -4.32433 2.15302 -7.40507
9.07766 18392565 18392564 18392573 18392563 7.00541704554 -10.7675 9.03764 -10.1756
9.10157 18392564 18392562 18392573 18392561 6.49159774567 -9.76905 2.34494 -10.5751
9.12912 18392562 18392561 18392573 18392560 6.14490120342 -11.6129 1.8957 -12.4117
9.39871 18392561 18392560 18392573 18392559 6.01075739884 -17.9304 -10.133 -21.8519
9.47941 18392560 18392559 18392573 18392558 5.84661374788 -20.7433 -5.54004 -24.4451
9.48905 18392559 18392555 18392573 18392554 4.93938066349 -14.1257 4.27251 -30.223
9.53332 18392555 18392553 18392573 18392552 4.42803373661 -16.4932 -5.98285 -15.2408
9.53428 18392553 18392549 18392573 18392548 3.70877426464 -9.19073 -2.96373 -14.1781
9.55841 18392549 18392547 18392573 18392546 3.28303305796 -12.9562 -0.7059 -15.7695
9.59059 18392547 18392546 18392573 18392545 3.08482263583 -11.4422 -3.27503 -14.5618
9.60381 18392546 18392545 18392573 18392544 3.00813107163 -10.241 -4.1428 -15.6198
9.61186 18392545 18392544 18392573 18392543 2.89578500573 -20.9516 -0.925767 -14.1886
9.07216 18392978 18392977 18392986 18392976 6.14490120342 0.0355917 -0.00236633 -7.35703
9.07216 18392977 18392976 18392986 18392975 6.01075739884 -0.620302 -0.6797 -8.13417
9.09111 18392976 18392975 18392986 18392974 5.84661374788 0.795652 2.22124 -9.12992
9.13154 18392975 18392974 18392986 18392973 5.52976580795 3.00591 0.791205 0.467333
9.1663 18392974 18392973 18392986 18392972 5.22758097313 1.39704 -1.56184 -1.83484
9.19223 18392973 18392972 18392986 18392971 4.99593346816 2.85785 -1.80407 -1.26581
9.2862 18392972 18392970 18392986 18392969 4.66451770247 0.938207 -4.666 -4.9822
9.29457 18392970 18392969 18392986 18392968 4.42803373661 4.61163 0.134567 -7.92001
9.61584 18392969 18392967 18392986 18392966 4.00794511147 -6.99338 4.84288 -3.03525
9.65005 18392967 18392966 18392986 18392965 3.93726108473 -2.47091 13.2139 -3.86785
9.82809 18392966 18392963 18392986 18392962 3.28303305796 -10.0534 3.50637 -24.9788
9.84287 18392963 18392962 18392986 18392961 3.08482263583 -33.8855 -3.69056 -35.923
9.85032 18392962 18392961 18392986 18392960 3.00813107163 -15.1492 -4.59332 -32.1359
9.0066 18392991 18392990 18392997 18392989 4.93938066349 7.43905 34.8868 6.68204
9.01928 18392990 18392989 18392997 18392988 4.66451770247 4.98298 28.5031 5.39558
9.53902 18392989 18392987 18392997 18392967 4.17683491473 -9.55133 8.12272 12.7702
9.02548 18393045 18393044 18393059 18393043 4.00794511147 -2.87135 -0.983837 -0.705475
9.21671 18393044 18393043 18393059 18393042 3.93726108473 -3.46527 -8.18616 -1.41846
9.23988 18393043 18393041 18393059 18393040 3.49086136926 -5.33064 -7.80097 -2.86262
9.04653 18393123 18393122 18393136 18393121 6.14490120342 12.8357 0.905124 -0.252161
9.08309 18393122 18393120 18393136 18393119 5.84661374788 13.3412 3.04828 -2.94721
9.10926 18393120 18393118 18393136 18393117 5.22758097313 8.94005 -1.00875 -5.18809
9.16852 18393118 18393117 18393136 18393116 4.99593346816 10.5925 -7.41298 -5.63652
9.19223 18393117 18393115 18393136 18393114 4.66451770247 8.35061 1.86979 -2.61776
9.2929 18393115 18393113 18393136 18393112 4.17683491473 -4.93679 -30.9735 5.9382
9.37181 18393113 18393112 18393136 18393111 4.00794511147 -2.35218 -5.46532 -6.38619
9.38815 18393112 18393103 18393136 18393102 2.5772902716 -0.50113 4.75071 -7.03544
9.04358 18393169 18393168 18393180 18393167 7.00541704554 19.7141 22.4993 -5.95845
9.00012 18393300 18393299 18393309 18393298 7.00541704554 -0.847192 0.807461 8.08823
9.02239 18393299 18393298 18393309 18393297 6.85511726265 -1.496 0.247774 4.87418
9.04358 18393298 18393296 18393309 18393295 6.14490120342 -2.74377 3.16046 5.29497
9.04945 18393296 18393295 18393309 18393294 6.01075739884 2.76201 2.89405 8.10314
9.05524 18393295 18393294 18393309 18393293 5.84661374788 4.04171 -2.38393 8.99438
9.07216 18393294 18393293 18393309 18393292 5.52976580795 2.52933 -1.6095 8.37554
9.10157 18393293 18393291 18393309 18393290 4.99593346816 2.05854 4.66349 5.12837
9.15502 18393291 18393290 18393309 18393289 4.93938066349 -0.363645 -2.27821 2.81791
9.19433 18393290 18393289 18393309 18393288 4.66451770247 -2.20364 0.209669 1.89523
9.22066 18393289 18393287 18393309 18393286 4.17683491473 0.453607 -4.33455 5.36316
9.26543 18393287 18393286 18393309 18393285 4.00794511147 1.25288 -0.355399 7.0658
9.29622 18393286 18393285 18393309 18393284 3.93726108473 5.1689 -1.66694 8.11101
9.32187 18393285 18393284 18393309 18393283 3.70877426464 -1.8606 1.88057 6.03038
9.35048 18393284 18393283 18393309 18393282 3.49086136926 -6.07194 4.12996 2.55573
9.3974 18393283 18393279 18393309 18393278 2.89578500573 -11.2844 -7.24841 -1.80096
9.46172 18393279 18393276 18393309 18393275 2.44422570455 0.22841 -5.57523 -7.86627
9.01928 18393372 18393371 18393378 18393370 4.00794511147 -10.7731 -2.6276 -1.10024
9.02548 18393371 18393370 18393378 18393369 3.93726108473 -6.96681 -3.17547 0.194268
9.10415 18393370 18393368 18393378 18393367 3.49086136926 -4.52487 4.07644 -0.179778
9.12912 18393368 18393367 18393378 18393366 3.28303305796 1.27227 11.0202 -6.93032
9.15042 18393367 18393366 18393378 18393365 3.08482263583 -4.79993 13.9778 -6.42628
9.1573 18393366 18393365 18393378 18393364 3.00813107163 -6.18041 18.2396 -8.18988
9.05811 18393451 18393450 18393464 18393449 4.66451770247 -1.24845 4.40599 16.5406
