logMh | fpID | subhaloID | main leaf ID | descID |  z
9.01928 21553396 21553395 21553405 21553394 8.44947629437 -4.93384 -1.04378 0.0186746
9.28956 21553395 21553394 21553405 21553393 8.01217294887 -8.23056 0.587488 3.74731
9.64268 21553394 21553392 21553405 21553391 7.23627606617 -4.3595 -32.8324 2.04522
9.9882 21553392 21553391 21553405 21553390 7.00541704554 30.2266 -47.5781 -31.0828
10.3655 21553391 21553390 21553405 21553389 6.85511726265 33.3428 -58.2692 -48.7044
10.4638 21553390 21553389 21553405 21553388 6.49159774567 53.4805 -53.8618 -78.5643
10.5884 21553389 21553388 21553405 21553387 6.14490120342 62.4676 -25.6876 -107.514
10.7166 21553388 21553387 21553405 21553386 6.01075739884 32.4954 -42.9997 -97.2155
10.8582 21553387 21553386 21553405 21553385 5.84661374788 -20.5995 -53.7273 -86.3868
10.9644 21553386 21553385 21553405 21553384 5.52976580795 -28.2708 -48.6532 -85.6326
11.0669 21553385 21553384 21553405 21553383 5.22758097313 -11.862 -39.3183 -8.79206
11.2552 21553384 21553383 21553405 21553382 4.99593346816 -222.801 33.2005 151.87
11.2729 21553383 21553382 21553405 21553381 4.93938066349 -176.744 -42.0398 100.745
11.3656 21553382 21553381 21553405 21553380 4.66451770247 -257.08 -73.9323 144.958
11.432 21553381 21553380 21553405 21553379 4.42803373661 -231.948 -84.6404 48.3143
11.509 21553380 21553379 21553405 21553378 4.17683491473 -10.7752 -134.92 -111.948
11.5946 21553379 21553378 21553405 21553377 4.00794511147 19.0287 -175.276 -224.62
11.6192 21553378 21553377 21553405 21553376 3.93726108473 60.6931 -165.734 -237.487
11.7338 21553377 21553376 21553405 21553375 3.70877426464 477.471 -92.357 -288.55
11.8462 21553376 21553375 21553405 21553374 3.49086136926 707.786 -366.419 -471.843
11.8778 21553375 21553374 21553405 21553373 3.28303305796 851.356 -433.018 -503.017
11.9549 21553374 21553373 21553405 21553372 3.08482263583 963.008 -457.459 -578.427
11.9695 21553373 21553372 21553405 21553371 3.00813107163 1010.87 -458.892 -546.027
11.9996 21553372 21553371 21553405 21553370 2.89578500573 1179.36 -484.489 -544.538
12.0742 21553371 21553370 21553405 21553369 2.73314261732 1374.98 -497.221 -552.35
12.1459 21553370 21553369 21553405 21553368 2.5772902716 1445.11 -603.422 -613.676
12.7278 21553369 21553363 21553405 21553362 1.90408954353 3514.88 -926.232 -3578.11
12.8019 21553363 21553360 21553405 21553359 1.66666955611 3855.29 -493.362 -3422.35
12.8336 21553360 21553359 21553405 21553358 1.60423452207 3748.01 -896.748 -4093.95
12.8887 21553359 21553357 21553405 21553356 1.47197484527 3363.07 -483.246 -3623.99
12.9314 21553357 21553356 21553405 21553355 1.3575766674 3053.18 508.543 -2035.42
12.9672 21553356 21553355 21553405 21553354 1.24847261425 2196.78 1372.57 -1393.11
12.9723 21553355 21553354 21553405 21553353 1.20625808078 2238.96 1130.72 -872.788
12.9941 21553354 21553353 21553405 21553352 1.15460271236 1779.87 671.871 80.887
13.0232 21553353 21553352 21553405 21553351 1.11415056377 1134.08 1215.78 383.555
13.0451 21553352 21553351 21553405 21553350 1.07445789455 410.611 1540.98 1086.17
13.0599 21553351 21553350 21553405 21553349 1.03551044566 612.399 1937.09 1231.58
13.0815 21553350 21553349 21553405 21553348 0.997294225782 236.879 2851.73 582.331
13.088 21553349 21553348 21553405 21553347 0.987852810816 485.814 3419.28 225.859
13.1339 21553348 21553347 21553405 21553346 0.950531351585 1671.15 3948.22 -284.093
13.1707 21553347 21553346 21553405 21553345 0.923000816178 1140.1 4086.39 -1140.29
13.2063 21553346 21553345 21553405 21553344 0.886896937575 -1920.98 1037.62 -1387.01
13.2523 21553345 21553344 21553405 21553343 0.851470900625 -3072.94 1116.53 -1149.23
13.296 21553344 21553343 21553405 21553342 0.816709979012 -3606.3 1563.38 -1384.86
13.3287 21553343 21553342 21553405 21553341 0.791068248946 -4338.45 1536.74 -1264.92
13.3739 21553342 21553341 21553405 21553340 0.757441372616 -4142.34 1686.05 -217.991
13.4179 21553341 21553340 21553405 21553339 0.732636182022 -4053.14 2374.3 -676.961
13.4795 21553340 21553339 21553405 21553338 0.700106353719 -3698.3 4029.03 168.904
13.5457 21553339 21553337 21553405 21553336 0.644641840685 -4087.14 4450.54 1317.05
13.5657 21553337 21553336 21553405 21553335 0.621428745243 -4723.49 4553.65 2307.24
13.5847 21553336 21553335 21553405 21553334 0.598543288188 -5179.02 5228.68 2342.29
13.6151 21553335 21553334 21553405 21553333 0.575980845108 -8219.75 3984.23 671.454
13.6451 21553334 21553333 21553405 21553332 0.546392183141 -9240.43 4611.82 218.976
13.6669 21553333 21553332 21553405 21553331 0.524565820434 -6928.2 6933.4 895.284
13.6978 21553332 21553331 21553405 21553330 0.503047523245 -8301.49 5868.79 848.038
13.7247 21553331 21553330 21553405 21553329 0.481832943421 -8276.21 4064.78 2537.08
13.7513 21553330 21553329 21553405 21553328 0.460917794181 -8308.51 4456.79 2724.73
13.7801 21553329 21553328 21553405 21553327 0.440297849248 -4502.96 2995.74 1718.84
13.8058 21553328 21553327 21553405 21553326 0.419968941997 -3340.56 1780.8 1000.72
13.818 21553327 21553326 21553405 21553325 0.399926964614 -5719.5 -1550.21 163.888
13.824 21553326 21553324 21553405 21553323 0.360687657262 -8702.85 -6828.04 -1921.08
13.8288 21553324 21553323 21553405 21553322 0.347853841858 -8068.82 -7275.3 -1841.08
13.847 21553323 21553322 21553405 21553321 0.328829724206 -6364.37 -7760.52 -1285.11
13.862 21553322 21553321 21553405 21553320 0.310074120128 -5364.8 -8171.48 -1465.94
13.8737 21553321 21553320 21553405 21553319 0.291583239722 -4097.21 -8612.48 -2305.35
13.8782 21553320 21553316 21553405 21553315 0.22598838626 -3476.77 -7831.94 -2406.08
13.8868 21553316 21553315 21553405 21553314 0.214425035514 -2954.46 -7948.78 -2596.5
13.8957 21553315 21553314 21553405 21553313 0.197284182376 -3184.08 -8337.71 -2921.58
13.9007 21553314 21553313 21553405 21553312 0.180385261706 -3324.48 -8665.9 -3216.78
13.9017 21553313 21553312 21553405 21553311 0.169252033244 -3955.62 -8649.05 -2910.57
13.9024 21553312 21553311 21553405 21553310 0.152748768902 -4856.27 -8610.48 -2181.7
13.9034 21553311 21553307 21553405 21553306 0.0994018026302 -6137.38 -7774.68 -103.03
13.9088 21553307 21553306 21553405 21553305 0.0838844307975 -5316.48 -7415.77 723.113
13.9118 21553306 21553305 21553405 21553304 0.0736613846564 -4691.56 -7126.98 1154.65
13.9177 21553305 21553303 21553405 21553302 0.0337243718735 -1450.5 -6730.02 3064.56
13.9184 21553303 21553302 21553405 21553301 0.0239744283828 -1983.06 -7043.47 3007.98
13.9189 21553302 21553301 21553405 21553300 0.00952166696794 -2090.56 -7831.84 2744.58
13.92 21553301 21553300 21553405 -1 2.22044604925e-16 -2324.69 -7823.15 2290.98
9.56646 21553411 21553410 21553418 21553392 7.59510714987 -15.5769 -15.6627 0.0652818
9.00337 21553442 21553441 21553448 21553440 8.01217294887 1.36858 -6.92225 -5.21495
9.05235 21553441 21553440 21553448 21553439 7.59510714987 1.54265 -5.54164 -1.21749
9.48586 21553440 21553438 21553448 21553389 7.00541704554 11.4453 19.9527 24.7646
9.06096 21553488 21553487 21553490 21553486 10.9190331982 0.0232592 1.50662 -0.231327
9.14108 21553487 21553486 21553490 21553485 10.3674435724 -2.63596 2.41633 -0.662466
9.37595 21553486 21553485 21553490 21553484 9.99659046619 0.757805 11.1016 3.57614
9.44564 21553485 21553484 21553490 21553483 9.84138043947 -9.25429 13.7978 0.94557
9.5761 21553484 21553483 21553490 21553482 9.38877127194 -6.5616 16.4572 -3.45175
9.88783 21553483 21553480 21553490 21553479 8.44947629437 42.8748 -27.1504 31.2548
9.01614 21553546 21553545 21553550 21553544 9.84138043947 -0.45074 -1.77374 5.85122
9.20055 21553545 21553544 21553550 21553543 9.38877127194 -2.91419 -6.78829 11.2427
9.29457 21553544 21553543 21553550 21553542 9.00233985416 -2.09363 -8.62964 13.7444
9.34902 21553543 21553542 21553550 21553541 8.9079991856 -11.2064 -3.82167 7.67913
9.44681 21553542 21553541 21553550 21553540 8.01217294887 6.23664 -7.81025 6.38024
9.24733 21553567 21553566 21553574 21553565 8.44947629437 -4.31979 -16.4642 -1.53786
9.25466 21553566 21553565 21553574 21553564 8.01217294887 -1.01286 -15.1931 -3.19854
9.42281 21553565 21553564 21553574 21553563 7.59510714987 3.52771 -15.2294 -7.49535
9.02548 21553588 21553587 21553594 21553586 8.44947629437 18.6793 -3.38274 -4.88123
9.11681 21553587 21553586 21553594 21553585 8.01217294887 20.7324 0.253963 -6.64451
9.20668 21553586 21553584 21553594 21553583 7.23627606617 18.5985 -1.96034 -10.287
9.10415 21553604 21553603 21553611 21553602 8.01217294887 -11.8893 -5.28708 2.23634
9.28956 21553603 21553602 21553611 21553601 7.59510714987 -6.2881 8.16481 6.3791
9.04358 21553701 21553700 21553703 21553699 12.0418635439 0.582824 -9.61127 2.87837
9.13154 21553700 21553699 21553703 21553698 11.4973879548 -2.74103 -0.558055 -0.863878
9.36481 21553699 21553698 21553703 21553697 10.9190331982 -3.1956 -0.103737 1.20624
9.45946 21553698 21553697 21553703 21553696 10.3674435724 -3.65989 -0.542367 2.48623
9.57175 21553697 21553696 21553703 21553695 9.99659046619 -1.82399 0.707387 8.63914
9.61026 21553696 21553695 21553703 21553694 9.84138043947 -0.184421 -0.474115 4.46979
9.84428 21553695 21553694 21553703 21553693 9.38877127194 17.914 -3.62347 7.15626
9.91805 21553694 21553693 21553703 21553692 9.00233985416 11.9691 1.30993 14.4092
9.92041 21553693 21553692 21553703 21553691 8.9079991856 11.2488 1.59425 14.1815
9.96863 21553692 21553691 21553703 21553690 8.44947629437 8.80089 -2.30143 12.9657
10.013 21553691 21553690 21553703 21553689 8.01217294887 4.91764 -4.04587 7.4199
10.1453 21553690 21553689 21553703 21553688 7.59510714987 10.2193 -15.8003 -4.83653
10.1745 21553689 21553688 21553703 21553687 7.23627606617 6.75414 -15.8574 -9.89416
10.2739 21553688 21553687 21553703 21553686 7.00541704554 -7.65401 -14.8317 -5.79017
9.10415 21553757 21553756 21553760 21553755 10.3674435724 -12.3144 -2.66196 3.00694
9.15502 21553756 21553750 21553760 21553749 8.44947629437 -9.97589 -1.27938 2.76396
9.21869 21553750 21553748 21553760 21553747 7.59510714987 -12.7246 -5.48695 0.627022
9.08038 21553948 21553947 21553951 21553946 7.00541704554 0.027558 -4.33118 1.44124
9.09898 21553947 21553944 21553951 21553943 6.14490120342 -10.0785 0.728446 -0.211202
9.08845 21554003 21554002 21554004 21554001 11.4973879548 -4.28793 5.59722 4.61331
9.11179 21554002 21553999 21554004 21553998 9.99659046619 -1.37712 1.46534 0.0948397
9.12178 21553999 21553998 21554004 21553997 9.84138043947 -0.971476 1.47885 0.728537
9.34165 21553998 21553997 21554004 21553996 9.38877127194 -5.84873 4.65642 2.58818
9.42281 21553997 21553996 21554004 21553995 9.00233985416 -4.15716 6.89174 6.21235
9.56911 21553996 21553994 21554004 21553993 8.44947629437 -9.66671 11.0616 -7.08092
9.67284 21553994 21553993 21554004 21553992 8.01217294887 -11.4372 2.32282 -5.99834
9.75936 21553993 21553992 21554004 21553991 7.59510714987 -3.37833 2.61778 -3.83724
9.80874 21553992 21553991 21554004 21553990 7.23627606617 -22.4159 -0.586378 -0.63187
9.10415 21554097 21554096 21554097 21554095 9.00233985416 0.640639 0.0374956 -5.15143
9.13871 21554096 21554095 21554097 21554094 8.9079991856 -3.03454 0.95123 -3.51479
9.21671 21554095 21554094 21554097 21554093 8.44947629437 -5.26244 1.68705 -2.75934
9.30923 21554094 21554092 21554097 21554091 7.59510714987 1.58847 3.79868 -1.81312
9.02548 21554108 21554107 21554111 21554106 6.49159774567 -4.80644 0.416276 -4.32236
9.12424 21554107 21554106 21554111 21554105 6.14490120342 -1.03649 3.87737 -5.71309
9.13634 21554106 21554105 21554111 21554104 6.01075739884 -6.79373 1.94653 -7.17361
9.14578 21554105 21554104 21554111 21554103 5.84661374788 -6.20046 0.900823 -6.18214
9.14578 21554104 21554103 21554111 21554102 5.52976580795 -6.94896 0.0857325 -7.22367
9.18802 21554103 21554102 21554111 21554101 5.22758097313 -7.57903 0.68638 -8.52189
9.20055 21554102 21554101 21554111 21554100 4.99593346816 -8.52009 1.68982 -8.06881
9.22066 21554101 21554100 21554111 21554099 4.93938066349 -7.15885 1.67627 -8.75989
9.24362 21554100 21554099 21554111 21554098 4.66451770247 -6.43698 6.90568 -8.82148
9.35338 21554099 21554098 21554111 21553378 4.42803373661 -5.20315 11.4173 0.909039
9.00012 21554130 21554129 21554137 21554128 7.23627606617 -0.278778 2.1293 4.87518
9.03763 21554129 21554126 21554137 21554125 6.49159774567 -1.15368 -1.59736 3.33049
9.04062 21554126 21554125 21554137 21554124 6.14490120342 -0.619156 0.162512 5.99384
9.04062 21554125 21554124 21554137 21554123 6.01075739884 -0.662085 1.17581 5.48378
9.06378 21554124 21554122 21554137 21554121 5.52976580795 2.0183 -2.29537 2.07122
9.11431 21554122 21554117 21554137 21554116 4.42803373661 1.44334 -2.23812 6.70567
9.13871 21554228 21554227 21554230 21554226 9.84138043947 -6.37771 5.11438 -0.195612
9.25101 21554227 21554222 21554230 21554221 8.01217294887 7.75302 2.68009 15.1762
9.66795 21554222 21554221 21554230 21554220 7.59510714987 16.3818 -6.42521 6.0191
9.76836 21554221 21554220 21554230 21554219 7.23627606617 9.2509 -16.4859 13.3352
9.80823 21554220 21554219 21554230 21554218 7.00541704554 13.9586 -20.4433 12.9065
9.88614 21554219 21554218 21554230 21554217 6.85511726265 9.92913 -19.7669 13.8584
9.9932 21554218 21554217 21554230 21554216 6.49159774567 5.18391 -32.8109 24.3214
10.0373 21554217 21554216 21554230 21554215 6.14490120342 13.6692 -31.9392 24.6852
10.0771 21554216 21554215 21554230 21554214 6.01075739884 22.3025 -27.3708 34.1854
10.1093 21554215 21554214 21554230 21554213 5.84661374788 19.0176 -25.9487 33.6842
10.1667 21554214 21554213 21554230 21554212 5.52976580795 26.406 -20.9802 34.3723
9.01614 21554264 21554263 21554266 21554262 9.00233985416 0.467787 -2.75199 -0.957412
9.01614 21554263 21554262 21554266 21554261 8.9079991856 0.228396 -2.12366 -0.440378
9.11179 21554262 21554261 21554266 21554260 8.44947629437 2.35269 -4.47591 1.38473
9.15042 21554261 21554260 21554266 21554259 8.01217294887 -1.37431 -4.87608 -1.4986
9.01928 21554286 21554285 21554291 21554284 6.49159774567 -6.61324 4.22005 -0.549797
9.03463 21554285 21554284 21554291 21554283 6.14490120342 -4.08587 5.56853 -0.892411
9.06096 21554284 21554283 21554291 21554282 6.01075739884 -6.38067 5.31749 2.72563
9.12178 21554283 21554281 21554291 21554280 5.52976580795 -6.53792 7.33867 -0.292507
9.20055 21554323 21554322 21554327 21554321 7.23627606617 -0.267658 3.90256 -10.2181
9.25284 21554322 21554321 21554327 21554320 7.00541704554 -0.799901 4.00983 -9.45736
9.29124 21554321 21554319 21554327 21554318 6.49159774567 -2.54071 -0.412156 -12.0752
9.10671 21554345 21554344 21554351 21554343 7.59510714987 2.13375 9.79983 5.03787
9.13154 21554344 21554343 21554351 21554342 7.23627606617 0.26945 10.7989 6.09846
9.18802 21554343 21554342 21554351 21554341 7.00541704554 0.599359 12.8181 5.29475
9.00012 21554388 21554387 21554401 21554386 5.22758097313 -1.03137 8.14614 -6.20744
9.06378 21554387 21554386 21554401 21554385 4.99593346816 -7.10917 13.8665 -13.4712
9.13634 21554386 21554385 21554401 21554384 4.93938066349 -5.71782 16.2851 -9.70043
9.37042 21554385 21554384 21554401 21554383 4.66451770247 -11.0508 8.11609 -4.56449
9.61026 21554384 21554382 21554401 21554381 4.17683491473 -52.2876 3.21472 15.6887
9.01614 21554404 21554403 21554409 21554384 4.99593346816 -31.6195 4.58032 -15.827
9.08309 21554525 21554524 21554536 21554523 6.14490120342 -2.86063 5.07221 1.72933
9.08578 21554524 21554522 21554536 21554521 5.84661374788 0.0268878 1.3005 6.99699
9.16182 21554522 21554517 21554536 21554516 4.66451770247 -1.29868 -5.12663 -4.88649
9.07492 21554707 21554706 21554710 21554705 10.9190331982 -3.49227 -11.1112 -2.92192
9.17946 21554706 21554704 21554710 21554703 9.99659046619 -0.828253 -2.18354 -6.32476
9.18802 21554704 21554703 21554710 21554702 9.84138043947 -0.984993 -2.75063 -5.17445
9.25284 21554703 21554702 21554710 21554701 9.38877127194 -0.955654 -2.23814 -4.62136
9.82321 21554702 21554698 21554710 21554697 8.01217294887 7.2822 -29.757 5.39794
9.8666 21554698 21554697 21554710 21554696 7.59510714987 -5.10698 -19.4599 10.1916
10.0298 21554697 21554696 21554710 21554695 7.23627606617 4.01351 3.48868 3.05146
10.2232 21554696 21554693 21554710 21554692 6.49159774567 -6.77077 -17.2244 9.0271
10.2338 21554693 21554691 21554710 21554690 6.01075739884 -22.0906 -38.2861 15.1946
10.2686 21554691 21554690 21554710 21554689 5.84661374788 -3.79727 -22.482 -0.417203
10.3143 21554690 21554688 21554710 21554687 5.22758097313 3.12521 -18.2985 -2.21363
9.60946 21554712 21554711 21554713 21554698 8.44947629437 9.52486 -23.4054 3.4932
9.47176 21554718 21554717 21554723 21554716 9.38877127194 -13.3794 29.7278 42.0793
9.5566 21554717 21554716 21554723 21554715 9.00233985416 0.838794 7.89544 12.5918
9.64268 21554716 21554715 21554723 21554714 8.9079991856 -1.43751 5.44066 16.277
9.00337 21554728 21554727 21554730 21554726 10.3674435724 0.496509 -1.7732 6.2094
9.09375 21554727 21554726 21554730 21554725 9.99659046619 -0.90083 -0.658344 6.69978
9.16407 21554766 21554765 21554768 21554764 10.3674435724 -6.26762 -5.22273 8.14937
9.2087 21554765 21554764 21554768 21554763 9.99659046619 -5.03238 3.14664 11.8319
9.26365 21554764 21554763 21554768 21554762 9.84138043947 -14.1825 -5.02344 15.3909
9.2742 21554763 21554758 21554768 21554757 8.01217294887 -5.324 3.90979 16.3814
9.31874 21554758 21554757 21554768 21554756 7.59510714987 -3.06876 2.52344 14.8316
9.04358 21554778 21554777 21554783 21554776 8.01217294887 1.98179 -11.7886 1.12453
9.09637 21554777 21554776 21554783 21554775 7.59510714987 -1.20356 -8.19223 1.41674
9.06378 21554812 21554811 21554814 21554810 10.3674435724 3.93107 0.307487 -2.12263
9.08845 21554811 21554808 21554814 21554807 9.38877127194 -2.04168 -2.88926 -1.52749
9.39346 21554808 21554807 21554814 21554806 9.00233985416 2.07256 -10.5183 10.345
9.42527 21554807 21554805 21554814 21554804 8.44947629437 2.89019 -4.79614 9.10292
9.53618 21554805 21554804 21554814 21554803 8.01217294887 4.956 -0.259153 14.9992
9.5956 21554804 21554803 21554814 21554802 7.59510714987 4.27205 1.70252 16.4604
9.62212 21554803 21554802 21554814 21554801 7.23627606617 -2.75597 4.68274 15.7155
9.63744 21554802 21554801 21554814 21554800 7.00541704554 -3.04209 2.65267 15.1262
9.64712 21554801 21554800 21554814 21554799 6.85511726265 -2.87336 4.15725 15.0876
9.71762 21554800 21554799 21554814 21554798 6.49159774567 6.67276 3.67634 10.5267
9.736 21554799 21554798 21554814 21554797 6.14490120342 0.704662 8.73987 11.7936
9.77279 21554798 21554797 21554814 21554796 6.01075739884 -5.42375 15.2593 21.5569
9.8237 21554797 21554795 21554814 21554794 5.52976580795 5.11984 13.5672 17.6101
9.83099 21554795 21554794 21554814 21554793 5.22758097313 5.09398 16.6939 18.2124
9.11179 21554850 21554849 21554857 21554848 8.44947629437 -3.08868 -0.319425 4.54486
9.25828 21554849 21554848 21554857 21554847 8.01217294887 4.99309 -1.91174 10.4492
9.37595 21554848 21554847 21554857 21554846 7.59510714987 5.57421 -3.93988 15.8679
9.43856 21554847 21554846 21554857 21554845 7.23627606617 3.93801 -0.722104 11.771
9.51275 21554846 21554845 21554857 21554844 7.00541704554 0.970535 -0.755609 14.0596
9.61186 21554845 21554844 21554857 21554843 6.85511726265 5.75083 4.31573 1.176
9.69317 21554844 21554843 21554857 21554842 6.49159774567 11.3473 -0.269699 6.12713
9.76892 21554843 21554842 21554857 21554841 6.14490120342 8.13594 -3.57787 13.9107
9.80721 21554842 21554841 21554857 21554840 6.01075739884 11.7907 -12.6226 19.6832
9.84893 21554841 21554840 21554857 21554839 5.84661374788 13.1591 -10.6892 16.4896
9.87843 21554840 21554839 21554857 21554838 5.52976580795 13.9814 -5.34948 8.63031
9.92041 21554839 21554838 21554857 21554837 5.22758097313 15.9243 -9.63707 9.64473
9.15042 21554903 21554902 21554910 21554901 6.49159774567 4.57399 9.99924 -5.23746
9.1663 21554902 21554899 21554910 21554898 5.84661374788 -0.595414 5.5932 -3.08961
9.2742 21554899 21554898 21554910 21554897 5.52976580795 5.14198 5.43288 -11.5502
9.30278 21554898 21554897 21554910 21554896 5.22758097313 -1.71935 4.17123 -4.48896
9.38141 21554897 21554896 21554910 21554895 4.99593346816 -0.961189 1.41387 -13.4918
