logMh | fpID | subhaloID | main leaf ID | descID |  z
9.11431 5187538 5187537 5187540 5187536 12.0418635439 5.20637 0.748952 -0.209941
9.13394 5187537 5187536 5187540 5187535 11.4973879548 3.12759 -4.93918 -6.57443
9.49326 5187536 5187535 5187540 5187534 10.9190331982 -10.2662 4.55807 -8.24308
9.5026 5187535 5187534 5187540 5187533 10.3674435724 -18.5244 4.10935 -16.5639
9.65005 5187534 5187533 5187540 5187532 9.99659046619 -23.2003 -8.16288 -7.75943
9.67145 5187533 5187532 5187540 5187531 9.84138043947 -21.6638 -11.9565 -5.64381
10.1591 5187532 5187530 5187540 5187529 9.00233985416 -10.6469 -20.2203 6.40467
10.1859 5187530 5187529 5187540 5187528 8.9079991856 -9.55196 -22.0131 6.72489
10.4766 5187529 5187528 5187540 5187527 8.44947629437 7.37855 -44.8774 9.45516
10.6023 5187528 5187527 5187540 5187526 8.01217294887 55.8117 -35.7882 29.6018
10.6473 5187527 5187526 5187540 5187525 7.59510714987 55.5043 -44.4845 15.1033
10.9831 5187526 5187525 5187540 5187524 7.23627606617 15.6126 -79.6751 -80.3154
11.0897 5187525 5187524 5187540 5187523 7.00541704554 -21.2861 -27.2435 -119.981
11.15 5187524 5187523 5187540 5187522 6.85511726265 -24.1422 -33.7489 -120.667
11.3181 5187523 5187522 5187540 5187521 6.49159774567 -2.29534 39.6723 -106.399
11.5263 5187522 5187520 5187540 5187519 6.01075739884 50.5401 277.985 -271.349
11.6602 5187520 5187519 5187540 5187518 5.84661374788 101.803 365.764 -185.361
11.8607 5187519 5187518 5187540 5187517 5.52976580795 203.214 523.158 -121.312
11.9247 5187518 5187517 5187540 5187516 5.22758097313 227.554 505.641 -175.884
12.0313 5187517 5187516 5187540 5187515 4.99593346816 -28.8004 304.361 -10.0398
12.0675 5187516 5187515 5187540 5187514 4.93938066349 -139.89 170.829 81.6131
12.1649 5187515 5187514 5187540 5187513 4.66451770247 -545.108 -74.6203 333.47
12.2218 5187514 5187513 5187540 5187512 4.42803373661 -510.116 -179.953 321.822
12.2694 5187513 5187512 5187540 5187511 4.17683491473 -419.172 -227.394 325.947
12.3071 5187512 5187511 5187540 5187510 4.00794511147 -430.784 -193.992 255.043
12.3219 5187511 5187510 5187540 5187509 3.93726108473 -457.89 -179.059 232.964
12.3314 5187510 5187509 5187540 5187508 3.70877426464 -491.814 -198.454 164.623
12.3407 5187509 5187505 5187540 5187504 3.00813107163 -665.684 8.62374 462.401
12.3433 5187505 5187504 5187540 5187503 2.89578500573 -974.043 -65.9806 545.299
12.4267 5187504 5187503 5187540 5187502 2.73314261732 -1439.15 171.934 287.015
12.4577 5187503 5187502 5187540 5187501 2.5772902716 -1538.92 118.78 79.7728
12.4792 5187502 5187500 5187540 5187499 2.31611074396 -1125.58 -751.767 137.947
12.5084 5187500 5187499 5187540 5187498 2.20792547238 -1335.16 -665.745 117.827
12.6088 5187499 5187498 5187540 5187497 2.1032696526 -1754.48 -1439.88 -480.742
13.4904 5187498 5187491 5187540 5187490 1.53123902916 5392.19 11429.3 4416.31
13.5142 5187491 5187490 5187540 5187489 1.47197484527 4923.42 11514.7 3897.36
13.5521 5187490 5187489 5187540 5187488 1.41409822037 5214.69 12351.1 4571.93
13.6421 5187489 5187488 5187540 5187487 1.3575766674 1116.7 7528.03 1062.74
13.6939 5187488 5187487 5187540 5187486 1.30237845991 1565.19 -2292.53 -2401.56
13.7025 5187487 5187486 5187540 5187485 1.24847261425 2565.81 -1944.55 -2183.63
13.7299 5187486 5187485 5187540 5187484 1.20625808078 3302.8 -4931.27 -2532.31
13.7644 5187485 5187484 5187540 5187483 1.15460271236 2869.36 -8897.81 -3720.87
13.7687 5187484 5187483 5187540 5187482 1.11415056377 3011.31 -8419.64 -3536.34
13.769 5187483 5187482 5187540 5187481 1.07445789455 2884.78 -6288.28 -2331.31
13.7929 5187482 5187481 5187540 5187480 1.03551044566 2357.96 -8925.2 -249.509
13.7983 5187481 5187480 5187540 5187479 0.997294225782 2377.35 -11179.0 1143.32
13.8115 5187480 5187478 5187540 5187477 0.950531351585 1338.63 -12290.2 -577.662
13.8214 5187478 5187477 5187540 5187476 0.923000816178 419.648 -15042.3 688.112
13.8313 5187477 5187475 5187540 5187474 0.851470900625 -95.3456 -14999.2 2985.71
13.8441 5187475 5187474 5187540 5187473 0.816709979012 -313.229 -13014.9 3352.08
13.8466 5187474 5187470 5187540 5187469 0.700106353719 -695.308 -6546.59 4860.52
13.8501 5187470 5187469 5187540 5187468 0.676110411213 -441.083 -7094.35 4765.94
13.8571 5187469 5187468 5187540 5187467 0.644641840685 -335.186 -9103.06 5199.3
13.8747 5187468 5187467 5187540 5187466 0.621428745243 1066.33 -14447.0 5863.94
13.8822 5187467 5187466 5187540 5187465 0.598543288188 1828.32 -16503.6 5916.05
13.8908 5187466 5187465 5187540 5187464 0.575980845108 2187.62 -17469.0 5570.54
13.9052 5187465 5187464 5187540 5187463 0.546392183141 2479.9 -16708.5 6840.81
13.9221 5187464 5187463 5187540 5187462 0.524565820434 2320.92 -17270.6 7477.35
13.9292 5187463 5187462 5187540 5187461 0.503047523245 3038.86 -16267.7 7446.92
13.9369 5187462 5187461 5187540 5187460 0.481832943421 3524.72 -15805.4 7349.05
13.9461 5187461 5187460 5187540 5187459 0.460917794181 3561.6 -16262.0 7220.67
13.9523 5187460 5187459 5187540 5187458 0.440297849248 4047.37 -16478.3 6779.98
13.9585 5187459 5187458 5187540 5187457 0.419968941997 4589.16 -17205.9 5941.75
13.9755 5187458 5187457 5187540 5187456 0.399926964614 5102.74 -17556.9 5503.1
13.9908 5187457 5187456 5187540 5187455 0.38016786726 5326.1 -19120.0 4380.44
14.0068 5187456 5187455 5187540 5187454 0.360687657262 5742.15 -18768.8 4765.78
14.019 5187455 5187454 5187540 5187453 0.347853841858 5628.78 -18363.2 5127.71
14.0262 5187454 5187453 5187540 5187452 0.328829724206 5852.31 -19167.4 4527.77
14.0312 5187453 5187452 5187540 5187451 0.310074120128 6321.13 -20699.5 3959.56
14.4439 5187452 5187442 5187540 5187441 0.152748768902 1959.0 -23445.6 -5088.11
14.4591 5187442 5187441 5187540 5187440 0.14187620397 3565.14 -24112.1 -5203.68
14.468 5187441 5187440 5187540 5187439 0.125759332411 -20.1917 -23127.5 -6849.43
14.4826 5187440 5187439 5187540 5187438 0.109869940459 -2424.19 -21957.3 -6410.69
14.4984 5187439 5187438 5187540 5187437 0.0994018026302 -2097.57 -22337.1 -10156.3
14.5214 5187438 5187431 5187540 5187430 0.00952166696794 1192.96 -20519.5 -14788.4
14.5312 5187431 5187430 5187540 -1 2.22044604925e-16 1772.96 -21529.9 -17418.1
9.05235 5187562 5187561 5187565 5187560 10.9190331982 2.78088 0.546935 -5.07003
9.12668 5187561 5187560 5187565 5187559 10.3674435724 4.07359 2.08207 -7.30408
9.10157 5187587 5187586 5187590 5187585 12.6747021048 1.89542 3.27571 -2.19544
9.29787 5187586 5187585 5187590 5187584 12.0418635439 30.5276 6.16231 6.09808
9.75593 5187585 5187582 5187590 5187581 10.3674435724 25.1713 9.48645 -10.6606
9.80003 5187582 5187581 5187590 5187580 9.99659046619 19.378 10.7876 -9.46501
9.848 5187581 5187580 5187590 5187579 9.84138043947 5.8927 -4.45553 -8.25933
9.85808 5187580 5187579 5187590 5187578 9.38877127194 12.9132 8.45749 -6.79471
9.41408 5187595 5187594 5187597 5187593 11.4973879548 -7.01172 21.4775 -3.44993
9.50055 5187594 5187593 5187597 5187582 10.9190331982 -4.93377 -1.48326 -10.8953
9.01298 5187612 5187611 5187619 5187610 10.3674435724 -1.96883 -0.0689905 2.36897
9.04653 5187611 5187610 5187619 5187609 9.99659046619 -0.464653 -1.5361 1.53458
9.09898 5187610 5187609 5187619 5187608 9.84138043947 -1.49498 -1.10459 1.96655
9.21272 5187609 5187608 5187619 5187607 9.38877127194 -1.19828 -5.52977 2.73313
9.01928 5187637 5187636 5187642 5187527 8.9079991856 2.62097 -13.0355 -1.13919
9.26008 5187678 5187677 5187684 5187676 9.00233985416 -15.8255 -3.48134 12.3472
9.13871 5187718 5187717 5187722 5187716 10.3674435724 -6.11135 -8.56314 3.13037
9.18802 5187717 5187715 5187722 5187714 9.84138043947 -4.52233 -3.46047 6.98535
9.17512 5187764 5187763 5187767 5187762 10.3674435724 13.8039 7.03786 -5.35492
9.23037 5187763 5187762 5187767 5187761 9.99659046619 3.36383 -10.7165 3.99423
9.27594 5187762 5187761 5187767 5187760 9.84138043947 17.5767 1.48311 1.15242
9.38141 5187761 5187760 5187767 5187759 9.38877127194 13.6734 -11.6724 5.29037
9.43136 5187760 5187759 5187767 5187758 9.00233985416 7.30648 -5.01795 6.07016
9.00337 5187779 5187778 5187786 5187777 8.44947629437 7.3012 -6.79917 11.5612
9.01298 5187778 5187777 5187786 5187776 8.01217294887 7.71757 -6.78773 13.6861
9.08038 5187777 5187776 5187786 5187775 7.59510714987 6.8969 -6.38369 13.9571
9.00337 5187802 5187801 5187807 5187800 9.00233985416 4.02445 4.45992 6.56301
9.1573 5187801 5187799 5187807 5187798 8.44947629437 4.81917 10.8146 11.7388
9.20464 5187865 5187864 5187868 5187863 12.0418635439 1.24838 4.13848 5.41144
9.34902 5187864 5187862 5187868 5187861 10.9190331982 -0.758436 4.07269 7.8525
9.49011 5187862 5187861 5187868 5187860 10.3674435724 -4.07904 -5.48769 4.75046
9.75017 5187861 5187860 5187868 5187859 9.99659046619 -21.7122 -20.2897 13.4659
9.8666 5187860 5187858 5187868 5187857 9.38877127194 -36.5012 -21.8721 7.10699
9.89787 5187858 5187857 5187868 5187856 9.00233985416 -34.9312 -22.9784 5.52282
9.92587 5187857 5187856 5187868 5187855 8.9079991856 -35.2026 -23.5685 5.59794
10.0124 5187856 5187855 5187868 5187854 8.44947629437 -23.9208 -43.9694 6.77301
10.0227 5187855 5187853 5187868 5187852 7.59510714987 -21.9551 -42.6306 3.35626
10.0442 5187853 5187851 5187868 5187850 7.00541704554 -35.6521 -38.1756 18.586
11.4424 5187851 5187849 5187868 5187520 6.14490120342 3.88613 143.896 -222.492
9.09637 5187877 5187876 5187881 5187875 11.4973879548 -9.64089 -7.23327 0.00283793
9.09898 5187916 5187915 5187919 5187914 11.4973879548 3.71449 -13.9144 -5.34969
9.09898 5187915 5187914 5187919 5187913 10.9190331982 2.77683 -7.50141 -3.13273
9.17073 5187914 5187913 5187919 5187912 10.3674435724 0.698024 -8.07825 -3.85784
9.31083 5187913 5187911 5187919 5187910 9.84138043947 0.579586 -0.807681 -13.0388
9.43974 5187911 5187910 5187919 5187909 9.38877127194 6.18462 -10.4855 -15.8495
9.4606 5187910 5187909 5187919 5187908 9.00233985416 7.08246 -9.30999 -11.9899
9.80568 5187909 5187907 5187919 5187906 8.44947629437 21.9714 -16.0796 -3.28795
9.84475 5187907 5187906 5187919 5187905 8.01217294887 30.91 -14.4743 20.546
9.00012 5187950 5187949 5187954 5187948 12.6747021048 -3.14517 1.78455 6.70251
9.09375 5187949 5187947 5187954 5187946 11.4973879548 -1.91888 2.14677 5.28139
9.22457 5187947 5187946 5187954 5187945 10.9190331982 -0.558947 2.00543 7.94448
9.42527 5187946 5187945 5187954 5187944 10.3674435724 -5.00836 -4.24073 5.47468
9.55021 5187945 5187944 5187954 5187943 9.99659046619 -5.82678 3.6388 15.9827
9.17946 5187968 5187967 5187972 5187966 9.38877127194 -10.9453 -2.12934 1.833
9.43737 5187967 5187966 5187972 5187965 9.00233985416 -5.7297 -17.0369 16.9885
9.48049 5187966 5187964 5187972 5187963 8.44947629437 6.43877 -15.9407 24.8997
9.65802 5187964 5187961 5187972 5187960 7.00541704554 -2.89805 -6.12829 11.8163
9.14811 5187994 5187993 5187998 5187992 8.44947629437 4.20219 6.06668 -15.1113
9.06939 5188014 5188013 5188016 5188012 8.44947629437 8.94792 4.87712 6.32287
9.3044 5188013 5188012 5188016 5188011 8.01217294887 0.565171 -1.1033 10.9914
9.35194 5188012 5188011 5188016 5188010 7.59510714987 -5.20379 -2.62625 14.693
9.37732 5188011 5188010 5188016 5188009 7.23627606617 6.59577 1.1887 14.7734
9.06096 5188025 5188024 5188028 5188023 9.00233985416 9.96236 4.41517 8.55082
9.05811 5188035 5188034 5188043 5188033 8.01217294887 -0.067666 -19.9064 2.19729
9.13394 5188034 5188033 5188043 5188032 7.59510714987 1.08301 -24.9124 2.5284
9.01928 5188055 5188054 5188061 5188053 8.44947629437 -3.90488 3.13811 -6.98741
9.05524 5188054 5188053 5188061 5188052 8.01217294887 -3.89945 2.63559 -8.07133
9.07766 5188069 5188068 5188075 5188067 8.44947629437 2.20461 10.6239 2.6611
9.23229 5188276 5188275 5188282 5188274 10.3674435724 -6.76643 -11.8952 16.3404
9.38141 5188275 5188274 5188282 5188273 9.99659046619 -2.76526 -9.44871 -7.24055
9.6573 5188274 5188271 5188282 5188270 9.00233985416 -8.7437 24.5779 11.861
9.65802 5188271 5188269 5188282 5188268 8.44947629437 -19.5161 7.46589 4.58884
9.71385 5188269 5188268 5188282 5188267 8.01217294887 -19.5477 12.5461 5.2153
9.00012 5188295 5188294 5188299 5188293 9.84138043947 0.793718 -4.07357 -2.66052
9.03763 5188294 5188293 5188299 5188292 9.38877127194 -4.13277 -0.56985 -1.45598
9.03463 5188347 5188346 5188349 5188345 8.44947629437 -4.81176 7.83045 -4.13484
9.0666 5188346 5188341 5188349 5188340 6.85511726265 -7.52008 5.18678 -6.60247
9.04358 5188352 5188351 5188362 5187519 6.01075739884 -9.63006 0.768547 -5.66436
9.08845 5188380 5188379 5188383 5188378 8.01217294887 0.0295157 9.69491 -2.69137
9.00337 5188489 5188488 5188494 5188487 9.00233985416 -3.11617 3.6465 -2.58602
9.01614 5188488 5188487 5188494 5188486 8.9079991856 -2.60971 3.77048 -3.54628
9.05235 5188487 5188485 5188494 5188484 8.01217294887 -2.61606 4.05292 -5.45035
9.42157 5188485 5188484 5188494 5188483 7.59510714987 -13.4795 -19.9195 -4.18803
9.47832 5188484 5188483 5188494 5188482 7.23627606617 -23.3426 -1.01095 -6.05245
9.0666 5188502 5188501 5188510 5188500 7.23627606617 -5.63585 8.05692 -1.22797
9.1193 5188501 5188500 5188510 5188499 7.00541704554 1.80394 -1.1985 4.24389
9.17512 5188519 5188518 5188524 5188517 7.23627606617 -1.04017 -18.6985 -0.660965
9.05524 5188566 5188565 5188575 5188564 8.01217294887 -9.19315 -5.54118 13.4091
9.03463 5188594 5188593 5188595 5188592 6.01075739884 -6.11837 -3.32072 2.92398
9.06096 5188795 5188794 5188798 5188793 12.6747021048 2.97799 -4.81491 -4.07285
9.19223 5188794 5188793 5188798 5188792 12.0418635439 4.97775 -4.98081 -1.48553
9.38815 5188793 5188792 5188798 5188791 11.4973879548 0.634169 8.65058 1.45323
9.40902 5188792 5188791 5188798 5188790 10.9190331982 2.17773 -0.546219 -1.43893
9.4651 5188791 5188790 5188798 5188789 10.3674435724 4.88516 -2.63921 -2.33226
9.50055 5188790 5188789 5188798 5188788 9.99659046619 -0.461739 -3.87224 -1.31745
9.51575 5188789 5188788 5188798 5188787 9.84138043947 -0.329382 -2.38978 -1.82365
9.54091 5188788 5188787 5188798 5188786 9.38877127194 -2.66473 -6.31002 -0.414573
9.63669 5188787 5188786 5188798 5188785 9.00233985416 -11.0991 -5.56211 -0.486064
10.5779 5188786 5188782 5188798 5188781 7.59510714987 -47.016 -167.971 32.3769
10.1294 5188802 5188801 5188807 5188782 8.01217294887 29.1283 17.4711 43.2643
9.26896 5188838 5188837 5188839 5188836 10.9190331982 14.2147 -1.2567 -0.452858
9.31401 5188852 5188851 5188857 5188850 9.84138043947 23.5762 -5.78351 17.3235
9.51475 5188851 5188850 5188857 5188849 9.38877127194 9.03924 1.10446 2.7431
9.57436 5188850 5188849 5188857 5188848 9.00233985416 12.731 -5.06764 -1.83689
9.6329 5188849 5188848 5188857 5188847 8.9079991856 19.0356 4.05854 13.5223
9.88868 5188848 5188847 5188857 5188846 8.44947629437 29.3927 15.0783 32.7027
9.12912 5188872 5188871 5188872 5188870 10.3674435724 -10.5133 -9.21079 -5.48051
9.20055 5188871 5188870 5188872 5188869 9.99659046619 -12.0171 -1.08007 7.8878
9.55021 5188885 5188884 5188885 5188883 8.01217294887 8.55073 -6.40772 21.2367
9.75133 5188884 5188883 5188885 5188882 7.59510714987 -1.69668 0.372645 16.6988
9.89371 5188883 5188882 5188885 5188881 7.23627606617 11.1586 3.46013 17.8206
9.93279 5188882 5188881 5188885 5188880 7.00541704554 15.1494 0.287191 2.10627
9.02855 5188898 5188897 5188902 5188896 9.84138043947 -1.52356 -5.73378 1.89363
9.2026 5188912 5188911 5188916 5188910 9.38877127194 -0.717994 -6.71659 21.7251
9.67904 5188911 5188910 5188916 5188909 9.00233985416 -0.870475 14.377 37.1057
9.68784 5188910 5188909 5188916 5188908 8.9079991856 -1.69361 10.7341 37.9245
9.02239 5188934 5188933 5188941 5188932 8.44947629437 0.431405 -2.76564 3.06308
9.16852 5188933 5188932 5188941 5188931 8.01217294887 0.191155 -5.41746 2.15278
9.32958 5188932 5188930 5188941 5188929 7.23627606617 -16.3788 1.64972 0.684744
9.34756 5188930 5188929 5188941 5188928 7.00541704554 -13.7623 -4.16229 -4.37987
9.38141 5188929 5188928 5188941 5188927 6.85511726265 -14.4923 -5.39136 -3.52461
9.11681 5188971 5188970 5188979 5188969 7.59510714987 4.15276 -5.23817 -5.28221
9.36056 5188970 5188969 5188979 5188968 7.23627606617 -1.06598 -10.2633 -15.6884
9.37457 5188969 5188968 5188979 5188967 7.00541704554 -2.23072 -9.26629 -15.2221
9.46955 5188968 5188967 5188979 5188966 6.85511726265 8.41972 -5.89823 -11.0114
9.23037 5188999 5188998 5189004 5188997 9.00233985416 -0.699526 5.99309 3.74783
9.30278 5188998 5188997 5189004 5188996 8.9079991856 5.97007 8.83802 2.68935
9.31874 5188997 5188996 5189004 5188995 8.44947629437 3.75304 6.751 -1.28954
9.43377 5188996 5188995 5189004 5188994 8.01217294887 -2.43409 3.99933 -4.46637
9.02855 5189023 5189022 5189029 5189021 9.84138043947 5.17894 -5.79152 -4.86321
9.0316 5189022 5189021 5189029 5189020 9.38877127194 2.55075 -1.64884 -0.423048
9.03463 5189021 5189020 5189029 5189019 9.00233985416 4.95127 1.96926 -1.18742
9.04653 5189020 5189019 5189029 5189018 8.9079991856 6.55016 3.86516 -0.259573
9.12912 5189019 5189018 5189029 5189017 8.44947629437 9.84632 5.89478 -1.43879
9.34609 5189038 5189037 5189042 5189036 8.01217294887 43.5561 -12.1796 26.5981
9.04358 5189086 5189085 5189087 5189084 7.00541704554 9.21821 -5.97097 -10.2253
9.08038 5189085 5189082 5189087 5189081 6.14490120342 6.27139 -3.79157 -26.4683
9.13871 5189165 5189164 5189165 5189163 6.01075739884 3.37811 -2.51174 -24.5077
9.14108 5189279 5189278 5189283 5189277 10.3674435724 -1.46514 3.78838 -0.953941
9.53428 5189278 5189277 5189283 5189276 9.99659046619 35.3185 0.241087 14.8191
9.70428 5189277 5189276 5189283 5189275 9.84138043947 25.8392 9.05016 15.2063
9.71762 5189276 5189275 5189283 5189274 9.38877127194 -4.70485 11.8701 4.58742
9.76557 5189275 5189270 5189283 5189269 7.59510714987 -16.6776 2.35617 -5.98983
9.11179 5189285 5189284 5189285 5189277 10.9190331982 1.23501 0.776066 1.36422
9.01928 5189316 5189315 5189324 5189314 7.23627606617 -3.32392 -0.987001 0.8512
9.02239 5189340 5189339 5189344 5189338 9.84138043947 7.06086 1.33823 -1.17425
9.11681 5189339 5189337 5189344 5189336 9.00233985416 11.3131 -2.80085 -7.65421
9.12424 5189337 5189336 5189344 5189335 8.9079991856 5.30786 -4.82715 -5.87685
9.1573 5189336 5189335 5189344 5189334 8.44947629437 5.37159 -5.35556 -4.61656
9.21671 5189335 5189334 5189344 5189333 8.01217294887 3.03348 -2.48803 -4.67071
9.2742 5189334 5189333 5189344 5189332 7.59510714987 4.31109 -6.53219 -3.18603
9.40902 5189333 5189332 5189344 5189331 7.23627606617 18.981 -32.4476 2.33531
9.4549 5189332 5189329 5189344 5189328 6.49159774567 15.1256 -9.8468 -9.06243
9.47286 5189329 5189328 5189344 5189327 6.14490120342 15.4836 -4.30011 -4.68619
9.05235 5189357 5189356 5189366 5189355 8.01217294887 1.89648 0.958214 2.05049
9.06096 5189356 5189355 5189366 5189354 7.59510714987 0.185747 1.15591 3.6529
9.12178 5189355 5189354 5189366 5189353 7.23627606617 0.879077 -2.25789 2.09582
9.34902 5189354 5189353 5189366 5189352 7.00541704554 -2.74105 17.9907 31.5077
9.09637 5189383 5189382 5189391 5189381 8.44947629437 -1.59615 -5.6759 1.67108
9.10926 5189382 5189381 5189391 5189380 8.01217294887 -0.918529 -6.80446 2.60818
9.17946 5189381 5189380 5189391 5189379 7.59510714987 0.614274 -2.584 0.468295
9.29124 5189380 5189379 5189391 5189378 7.23627606617 5.20767 -5.0567 7.55199
9.34609 5189379 5189378 5189391 5189377 7.00541704554 4.17968 -4.59809 6.29592
9.09111 5189404 5189403 5189415 5189402 7.59510714987 -3.13701 7.37218 12.7172
9.14344 5189403 5189402 5189415 5189401 7.23627606617 0.164519 2.14522 14.6455
9.34609 5189402 5189400 5189415 5189399 6.85511726265 8.88896 0.817415 15.5601
9.14811 5189424 5189423 5189434 5189400 7.00541704554 6.43233 -1.2145 8.59823
9.01928 5189449 5189448 5189455 5189447 9.38877127194 -2.5111 3.34323 2.214
9.04358 5189448 5189447 5189455 5189446 9.00233985416 -4.87881 0.501773 3.78826
9.06378 5189447 5189446 5189455 5189445 8.9079991856 -5.08514 0.134518 2.3689
9.08309 5189446 5189445 5189455 5189444 8.44947629437 -4.6969 2.35836 2.48799
9.00337 5189465 5189464 5189471 5189463 7.00541704554 11.0656 21.5685 8.11228
9.05235 5189464 5189463 5189471 5189462 6.85511726265 11.0962 16.2546 4.20862
9.24362 5189463 5189462 5189471 5189461 6.49159774567 22.6661 2.48659 -7.0107
9.2862 5189462 5189460 5189471 5189459 6.01075739884 13.1671 -3.31913 -5.85394
